std_dev_ch1,std_dev_ch2,rms_ch1,rms_ch2,min_ch1,min_ch2,max_ch1,max_ch2,zero_crossings_ch1,zero_crossings_ch2,avg_amp_change_ch1,avg_amp_change_ch2,amp_first_burst_ch1,amp_first_burst_ch2,mean_abs_value_ch1,mean_abs_value_ch2,wave_form_length_ch1,wave_form_length_ch2,willison_amp_ch1,willison_amp_ch2,classification
10.08569191897798,9.774972933518292,10.098005131460777,9.785726355441119,-17.67583994,-16.75075077,16.790813322584977,15.903251841469876,4,4,1.561708304431824,1.5136077865835451,0.00196799,0.001007995,8.329440053,8.160705212029928,106.19616470136404,102.92532948768107,62,61,1
9.526788636568414,9.012518900780078,9.646644212569027,9.151592776847156,-13.10848766,-12.86035931,17.10167138991916,15.92052112032533,2,2,1.5082363453764684,1.4528700503006202,-0.002483988,-0.003613073,8.231334421391562,7.824310152832754,81.44476265,78.45498271623349,50,50,2
7.426329125839294,7.202624347116339,7.747541308460406,7.507349014682746,-14.782063,-14.77651416,10.234985351893696,10.015076841924706,3,3,1.417223212773571,1.3627637326712896,-0.005502409,-0.00520132,6.505376779153777,6.231766781118956,76.53005348977284,73.58924156424963,50,53,3
9.812126578227545,9.53061814,9.850745271644222,9.559907741455216,-12.53481044,-11.75398979,19.562519476097282,19.020092008183774,3,3,1.4190707367176498,1.360099125188727,0.001942027,0.001377484,7.766200779,7.553310999585593,76.62981978275309,73.44535276019127,48,49,4
8.795398863207927,8.616391697264959,8.798616106531549,8.623597085961023,-11.96909341,-11.76760612,15.927769324124453,15.622865428853789,2,2,1.234832844337474,1.230534261,-0.001528029,-0.002431297,7.407796564279669,7.303763691618951,66.68097359,66.44885007794635,49,52,5
10.581401131156232,8.576184543781636,10.620785415800743,8.596675786955396,-18.95174017,-12.16061837,19.65624845267534,17.250379729108186,3,3,1.3687480160762862,1.1348241035424305,-0.057577974,-0.004505588,9.009553404529353,7.252194311276117,104.02484922179775,86.24663186922471,76,73,6
8.165625747569882,7.940578936550385,8.182212557713452,7.970625260525056,-10.82537114,-10.85849866,15.529081917256889,14.748711898202357,3,3,1.2270059156888906,1.1959731522607453,0.000940904,0.000368835,6.677583558244106,6.579222273430652,66.25831945,64.58255022208024,47,46,7
6.381596940003121,5.9459629741689595,6.415615447208828,5.993481781227893,-11.86580075,-10.94245248,8.970861777012304,9.106333783007692,2,2,0.9747788212729046,0.9163226749954675,0.005276592,0.00498303,5.454500872735302,5.0653104416173145,52.638056348736846,49.481424449755245,52,51,1
5.994509094198271,5.467963935918888,6.021733487226421,5.505412369805815,-13.87599821,-12.63707047,8.644570948779348,8.364979884617558,2,2,0.7664964426533615,0.7356790646414831,0.002251745,0.001994258,4.668246834427576,4.230591682641234,62.08621185492228,59.59000423596014,73,71,2
6.741053643049425,6.3681865756575995,6.7978225606543985,6.414466689687367,-13.47538446,-14.06273798,10.40371654869159,8.450097189625733,5,6,1.1938434890442973,0.9684796831057968,-0.019390769,0.000458754,5.638445406788061,4.909060234708633,87.1505747,70.69901686672317,71,62,3
5.659153543083395,5.3810365950437555,5.666418682573878,5.387346469156673,-10.14885501,-10.38874734,12.538626903497143,11.612710680605382,5,5,0.8808364781179925,0.8448760604092274,0.000476098,0.000615822,4.357765042550024,4.123186672692601,69.58608177,66.74520877232897,73,73,4
6.7108371186618445,6.227448234792448,6.750869528007078,6.265844521193926,-6.694606227,-7.632167311,15.900359825786122,14.400539439385309,2,3,0.8521063829105704,0.832686808,-0.020901302,7.272936860624493e-05,5.246823973025752,4.752625809844696,62.203765952471635,60.78613701686672,67,67,5
7.331901367694285,7.302097569979242,7.446646641114728,7.404877856763364,-14.92813333,-14.86745131,10.122358902687626,9.731378803827647,3,3,1.0674319255966058,1.0480564531145817,-0.001799009,-0.001505447,5.740415214167569,5.733739931505071,57.64132398221672,56.595048468187414,50,45,6
6.968200595170734,6.557299455,7.086283324422875,6.694958049170532,-11.76440013,-10.90162553,12.72036017532418,12.296286630466554,2,3,1.0568009442183892,1.0244878290662367,0.00441096,0.004207725,5.770536987832423,5.4181612851226095,57.06725098779302,55.322342769576785,51,51,7
4.035082169404642,3.9579257353191672,4.120324231152185,4.035713754702627,-8.933579605,-8.788596479,4.796445387237763,4.481407131874251,3,3,0.6201102539393613,0.6071361012258071,0.004603943,0.004832355,3.1463279330216842,3.0854456621947683,35.346284474543594,34.60675777,52,52,1
9.270761517310037,4.464212645615398,9.534542250406181,4.872753133,-24.75210617,-6.976744674,11.626251527812595,7.022088807397812,5,3,1.424419779368919,0.703582707,-0.079430283,-0.002503095,6.543793955757088,4.267732992,91.16286587961082,45.02929326731168,61,53,2
7.8132332023599105,5.583039378113678,7.818945357010051,5.583339237140642,-18.51734178,-11.65656776,13.095654068936454,7.637918213,3,4,1.182243085424109,0.5646204187207678,-0.079668729,0.002214889,6.226339825726238,4.334828808971868,93.39720374850462,44.60501307894066,77,67,3
6.037204981359917,6.3586043126315115,6.071494094911802,6.3882078185790565,-9.484328869,-10.14626198,9.642264202804329,9.712289642124757,3,3,0.5852813849082557,0.5881279466203218,-0.00353176,-0.00404798,5.1336763313192835,5.380046907470074,46.82251079266045,47.05023572962574,73,74,4
3.8134397829361553,3.6547594617854053,3.964379071936687,3.8131032278319963,-6.6917431,-5.915645331,6.823730653796759,6.814784794940661,3,3,0.5198806983118096,0.48900414345690796,0.002199028,0.002408715,3.364886921317428,3.2384753530478556,39.51093307169753,37.1643149,69,67,5
2.6893038594183145,2.572592596698241,2.6900024327880665,2.5771531194768063,-5.510965148,-5.10099219,3.2347533229931345,3.050474671582088,3,3,0.419337369,0.38129486138112056,0.001899216,0.002142439,2.2163510508181625,2.1303023481020458,33.12765216532452,30.122294049108525,63,63,6
3.1138440914410275,2.906577047,3.1743999097978226,2.9630681355840722,-6.031529482,-5.858385692,5.9343012521276615,5.382683503258506,6,6,0.5125050878054079,0.47170296093554914,-0.001011995,-0.000741107,2.379296274606854,2.2136390681236957,41.00040702443263,37.73623687484393,67,62,7
4.978620735639946,3.481029923185155,5.226975137276915,3.749678905773642,-11.1123348,-6.319906353,8.371867977090481,5.658043539240779,3,3,0.8122990414407388,0.5414401810417063,-0.04161554,-0.000530617,4.378276702181964,3.1211770332472404,56.86093290085172,37.90081267291944,65,59,1
2.2355225534613896,1.8032628894993277,2.413024266645954,2.092411871196956,-4.870994729,-4.479415062,2.9805519279331465,1.907220083687997,3,4,0.4214674611396188,0.35610975925859767,0.00106134,0,1.9446548199098275,1.6158045506995402,22.759242901539416,19.229926999964274,46,43,2
2.8451920938914532,2.5168356419640006,3.282193629691504,3.0399035502326672,-7.381428551,-7.135241661,3.024288721,1.8571414289852939,4,4,0.5687735219702167,0.5016579524643222,0.001226939,0.001031231,2.526583893861718,2.2395525380275134,30.713770186391702,27.089529433073398,47,43,3
7.100351723499191,7.312744173721096,7.103204988,7.319152615245149,-13.59157088,-13.05982193,9.377482254886054,10.300785274728371,1,1,0.6443523006934484,0.6105846765233377,0.003431825,0.003900296,5.963305035791587,6.213924325696456,48.32642255200863,45.79385073925033,66,68,4
292.9297382209354,3.2002605820059973,293.6739078779822,3.2187109069222495,-286.0047423,-5.649872688,749.0416290722513,5.824501421976662,1,3,40.602172084030066,0.5575006745162233,2.848975781239512,0.003530273,221.46658530473297,2.6230892023604238,2192.5172925376237,30.10503642387606,54,49,5
3.091113631274494,3.121962445530314,3.1563187515164897,3.1974741937265625,-6.401648247,-6.288585257,6.197186793358752,5.998482907513068,2,4,0.46498362584597774,0.4430321402446853,-0.002880972,-0.002756205,2.5055589443085595,2.551821450034753,33.47882106,31.89831409761734,62,58,6
30.02598753026975,29.808500010718074,30.149226136600596,29.936438106517638,-52.5738365,-51.92757087,35.017723361981595,34.26054195759142,1,1,2.138961256442387,2.095063664532709,-0.018680259,-0.018545989,26.327826406969795,26.238204573409824,156.14417172029425,152.93964751088777,71,70,7
7.3483294778227375,7.384439956160238,7.436081454520973,7.4751952125497105,-11.02950774,-11.10953568,12.258656087185653,12.297483698352265,1,1,0.6580252738548727,0.6606830903595828,-0.002965731,-0.003010894,6.205586263743259,6.227083626149579,35.53336478816313,35.676886879417474,50,50,1
3.4408665795731377,3.3938476923811023,3.461618806,3.4127181814019507,-6.934910988,-6.784113989,4.915410567670187,4.913464819884708,4,4,0.5096964574698518,0.5029615248674439,-0.001144583,-0.001132406,2.7924930421467797,2.758642448,34.149662650480074,33.698422166118746,59,59,2
13.954566811140229,13.927311546640977,14.057223584786719,14.034120729994957,-22.12015643,-22.23989312,22.003084028324405,21.931175528869666,3,3,1.1723664859602594,1.1742665271200303,-0.003690496,-0.003607696,11.54064683107848,11.516536503019221,80.89328753,81.02439037,62,62,3
9.128419724301477,9.196194722411542,9.291114370764127,9.359626782830265,-22.17030837,-22.29993406,10.845545800630878,10.953835383166927,6,6,1.2802751281473843,1.2921344696415247,0.00135948,0.001409831,6.590397974,6.641535866633594,93.46008435475906,94.32581628,67,67,4
5.252052290885979,5.310779565054257,5.291544346616317,5.349126523413104,-12.27733207,-12.35650346,5.046047700259051,5.361428024784047,2,2,0.5980885124867563,0.6032268821308661,0.002326552,0.002419847,4.086649975676979,4.138509245326592,41.86619587407294,42.22588174916062,63,59,5
11.030102688808725,4.807003350411312,11.036009535531903,4.874388708841923,-29.2847669,-8.307006555,19.26511803845358,8.791446499,3,3,1.6323276442133186,0.622049788,-0.118234545,0.004417794,7.852261023124361,4.066561978042299,122.4245733159989,46.65373409,70,71,6
332.8391984588722,4.038277568180566,333.6782635881077,4.056458867682128,-329.59295,-6.689631781,851.6036857999504,7.150088202680128,1,2,46.42270417652654,0.5574823686828657,3.2529098119475535,0.000767778,251.06451515569032,3.206747422211395,2506.826025532433,30.104047908874747,54,47,7
8.604069034860917,8.555676842,8.662082689028106,8.629546908290738,-14.68884755,-13.74791437,12.94866268083983,13.14256707182683,1,1,0.6856957267208404,0.6534076615956314,0.004871197,0.005215299,7.470375925652915,7.451786351817487,52.11287523078387,49.65898228126798,68,66,1
7.071372078266602,6.605777562609174,7.076911761235501,6.612982703,-11.7028485,-10.9198618,9.143680077840754,8.658493280714705,3,3,0.9820270620408703,0.937839643,0.004978456,0.004664027,6.254255748394485,5.833940642,76.59811083918788,73.15149219033366,73,74,2
5.133899762016642,757.7864983,5.180691403458326,758.4670234449691,-9.549311256,-778.6429718,7.476042914500257,2315.8480370508028,3,2,0.7057550553299411,96.95569002688752,0.001906569,-0.12164458,4.491098118124827,504.7758135721838,52.93162914974558,7271.676752016564,65,75,3
67.19165680329004,6.6509991901968695,67.23632810021905,6.696209682144415,-63.21857413,-11.62134521,199.82656810445135,11.66846752747092,4,3,9.820415006828364,0.7850830039826705,-0.099295366,-0.005877605,45.727115187136256,5.458675304562158,687.4290504779855,54.955810278786934,70,67,4
5.494305636,5.264599564362072,5.515512902,5.285464113406771,-7.394928105,-7.044313193,12.201140012638886,11.933428256991375,4,4,0.7032055058574823,0.6739893891080362,-0.000964179,-0.000849785,4.212945943473704,3.984465332,52.74041293931118,50.54920418310272,67,67,5
7.115568831862522,3.905937596354711,7.124207508962484,3.9071615916790883,-18.25959247,-7.293435106,8.412998993,5.453362073807376,4,4,1.2275845936332945,0.5917080266149878,-0.08195385,-0.000455398,5.705519633011734,3.3156440975239656,84.70333696069733,40.82785383643416,65,63,6
5.1120786237646145,4.777724706936482,5.161369682701992,4.829561001,-8.454034987,-7.740261092,9.809831797565877,9.187534143279146,3,3,0.7557294943239173,0.705065005,-0.004052515,-0.003766798,4.0911934515231305,3.8847940573138913,52.90106460267421,49.35455035,65,63,7
3.0579482500007065,2.797847642250264,3.059493929690943,2.7993111526944228,-3.933161396,-3.658598626,5.503868630762712,5.0249793949459045,2,2,0.4459090777516296,0.4049110984264825,-0.000459161,-0.000895741,2.5879956219952263,2.373302402058718,24.0790902,21.865199315030054,46,48,1
4.294315673574984,4.137581219115739,4.427180504754033,4.277297293371694,-6.707064766,-6.503727065,7.378762852807653,7.569756335,1,1,0.3470113609090254,0.3311816683405112,-0.002399065,-0.001958529,4.010193658301978,3.8409441091202345,26.719874789994954,25.500988462219365,58,54,2
12.742843625764817,5.061140503574445,12.783461769415101,5.100209286789943,-36.22589954,-8.851445363,12.32948320258819,7.309329862,3,1,1.206103660901015,0.3845201874533789,-0.125575792,-0.002924869,8.578623808955593,4.369255596836076,91.66387822847713,29.223534246456797,66,63,3
16.79636896337712,5.557203682796549,16.83364638862498,5.581115701424462,-47.62545017,-8.882161133,15.175100054353559,8.167490090407348,3,1,1.8939949288731017,0.42819905018034904,-0.166506571,-0.00343675,11.89851041984199,4.910792897852814,136.36763487886333,30.83033161298513,67,66,4
18.31390498251598,8.437807001239017,18.433102827058452,8.560603197,-50.11633474,-12.0529883,19.55114257070524,14.076798067526747,3,1,1.8814899603970627,0.5505938422691767,-0.167884673,-0.004389512,12.401902748980774,7.387088484889083,135.46727714858852,39.64275664338073,63,58,5
5.608904874469125,5.5080027760953865,5.757271292154136,5.670816740006976,-10.38678496,-10.37959797,8.060089209448861,8.369460261,1,1,0.46497433186218134,0.4697284277801461,-0.005250545,-0.005493687,4.9521654,4.799452682342649,28.828408575455242,29.12316252236906,60,60,6
6.883761513699833,6.740313483225997,6.906869409145115,6.764700768134838,-13.38803634,-13.32388024,8.521615805058692,8.098551580905326,3,3,0.5696631377460325,0.5499761169286621,-0.004587097,-0.004371818,5.464601877102302,5.348286831405711,42.15507219320641,40.698232652720996,68,67,7
4.4292401672589925,4.287417949893478,4.609884694965794,4.436330242896966,-7.836682322,-7.494575454,8.747397084698955,8.062597718358042,3,3,0.7708680924343186,0.7269981808357656,-0.004666248,-0.0051855,3.8530959000338054,3.7170326927420847,44.71034936119048,42.16589448847441,56,55,1
3.160504081890847,2.7940581351611136,3.1606640726659174,2.7948105845148286,-6.461666628,-5.417117889,4.267604980358012,3.7835291915001865,3,3,0.39413438607496065,0.32238544164604716,0.00196419,0.00192279,2.6828033577515815,2.409965194132433,35.07796036,28.692304306498198,78,76,2
3.9135481726952657,3.7182905130318176,3.940680472749441,3.7411415444348344,-6.48649234,-5.421836369,7.545088161081838,7.213118079823225,1,1,0.3950149921787605,0.33363984526164003,-9.86E-05,-0.000289141,3.0675603692819213,3.062555824192133,24.490929515083153,20.685670406221682,50,45,3
3.1817231439256908,2.8083225010483903,3.188838956225352,2.820344585217011,-4.537163112,-3.979936181,5.874261313749991,5.127035223663018,2,3,0.5093520900060651,0.47456875500944196,-0.004207725,-0.003695873,2.702821097805938,2.376154971238537,27.50501286032751,25.626712770509865,50,50,4
2.4793889414359227,2.5570976119113586,2.5328647447361448,2.5999416219182674,-6.195099159,-6.025143866,5.1034322327410475,4.615280227521053,4,4,0.4021405338776628,0.36515909209143976,-0.000460573,-0.000445048,1.9929882346160857,2.0822747016846583,31.76910217633536,28.84756827522374,65,67,5
3.0310977375592247,2.970716970309344,3.0390619401110808,2.972614300653711,-5.763739769,-5.414811295,5.5304366002055305,5.352849438418032,3,3,0.45751294964531924,0.4397425459433958,-0.001492725,-0.000932953,2.4908077122671766,2.452400175770167,32.02590647517235,30.781978216037704,60,61,6
3.2939652158060007,3.328571438907365,3.3033019283541987,3.3403541622280595,-6.899797093,-7.18051343,4.481661892182001,4.6869742339751665,4,4,0.5464149604493227,0.5211594503290222,-0.000398473,-2.59E-05,2.764084127847265,2.768995863969874,43.16678187549649,41.17159657599275,68,68,7
4.397081958698939,4.4804446599697405,4.415606404,4.496672853830996,-7.890891329,-8.077632446,8.736438993038949,8.696237461160242,4,4,0.45711223026597275,0.45690615825135344,0.002311489,0.002374738,3.2720310194129234,3.329419125623278,32.454968348884066,32.440337235846094,65,64,2
5.389747477180727,5.345221636819054,5.391524897250082,5.348955282319009,-7.993062367,-7.956691837,9.759892602843438,9.613025940699012,2,2,0.7440032461280323,0.7408537998802278,-0.001655992,-0.002009772,4.483102166798835,4.458602575723494,40.17617529091374,40.00610519,49,50,3
5.6509995988979105,5.569372937291732,5.752396350540358,5.673864443,-10.30517345,-10.43217385,8.355853368671102,8.266493103251438,3,3,0.5940640485581234,0.5965487434332929,-0.003888224,-0.003720387,4.733263842702017,4.629751126769132,43.36667554474301,43.548058270630385,67,68,4
2.7417583718415135,2.685439523100919,2.768761604134913,2.7153048753676785,-5.386573223,-5.422828686,4.845127306188862,4.765514304724333,3,3,0.36063878560900375,0.37098206417131147,9.741128102918342e-05,6.0882050643180805e-06,2.209311851847385,2.169885797593793,24.162798635803252,24.85579829947787,57,57,6
3.9126435782544946,3.961497320902992,3.9255415543417578,3.969707982400794,-6.991186026,-7.075620575,6.579293952411163,6.574128404287911,3,4,0.6325484933580352,0.6355896688503175,8.032795935613568e-05,-2.47E-05,3.2504774067133693,3.2900166375518527,41.74820056163032,41.94891814412096,58,57,7
2.774919485001451,2.735304070218235,2.807572351891955,2.7762098466821445,-6.845399042,-6.779454397,3.3272930212148193,3.2470161100626047,5,5,0.43106898215930994,0.43606471619129167,-0.000703298,-0.000887851,2.2270857568506184,2.1916604969284035,35.347656537063415,35.757306727685915,67,70,1
3.6300592779905814,3.651896353887139,3.646450081057451,3.6666869381791245,-5.466779321,-5.272204063,7.142008381249068,7.245319459773526,3,3,0.5824358182248628,0.5808755532143052,0.001799009,0.001926972,2.879710161600175,2.8925211352190563,31.451534184142588,31.367279873572482,47,47,5
5.281042934347717,5.0629563792230226,5.515814695208848,5.288710336545846,-7.608285539,-8.362278106,11.507010886967828,11.130136430507406,3,3,0.9751593152587265,0.9419470941908039,0.003214129,0.003311984,4.461275632437174,4.2624658056097955,52.65860302397123,50.86514308630341,52,51,1
5.3457154136765945,5.378303638778667,5.442111263708622,5.471720084576972,-10.64931492,-10.67610785,9.021643911719504,8.625335836,5,5,0.9561216436666601,0.9662381779826286,-0.000464349,-0.000481133,4.397766292754825,4.451352539406149,69.79687998766619,70.53538699273189,68,68,2
4.727306570471631,4.597717990943544,4.736296751210914,4.605228865837856,-6.624609405,-6.627318627,8.232286388293884,8.397277170633236,4,4,0.7521050816808063,0.7184045178428237,0.002140961,0.002460331,4.085664314142628,3.9423226724789515,51.89525063597563,49.56991173115483,62,63,3
6.255822309,6.502281089623361,6.315382554294754,6.548585278843015,-10.37084187,-10.92400081,9.608765993664864,9.588137091,3,3,0.9772986297369425,1.00608717,0.001809762,0.001413507,5.380443052556585,5.589664812922377,67.43360545184903,69.42001471672094,66,63,4
5.966970793123153,5.852881112372888,5.972119996,5.856111798843177,-6.563305411,-6.772031114,13.41226604,13.036149592612047,2,2,0.6877973665242574,0.6661634419263952,-0.005498592,-0.005107918,4.800055650812368,4.727805509224869,48.14581565669802,46.63144093484767,60,62,5
5.337817711351653,5.075838886421347,5.341664852129601,5.102423946,-9.322292618,-8.883790919,10.505737681899813,9.584435363652435,3,3,0.7402628074733406,0.7237680220032516,0.00208799,0.00200399,4.282116357554892,4.149840905676589,50.33787090818716,49.216225496221114,63,64,6
14.752928840328105,14.585823365353804,15.25587444,15.089174498901981,-22.64096233,-23.02117435,28.57585005168313,28.158660181729037,1,1,1.4698167698245304,1.4462443304102064,0.00975133,0.009393278,12.653970332410752,12.540055805828468,107.29662419719071,105.57583611994507,70,71,1
8.153464799522489,8.298880852846931,8.277030731,8.427049752429172,-14.45997192,-14.60620862,14.466900615576908,14.928512165480186,3,3,1.2039819129993727,1.217778721531562,0.002528147,0.002461908,6.990375710198543,7.125659507579333,89.09466156195359,90.11562539333559,71,71,2
7.9885315499958685,8.358852316306095,8.025354827318031,8.403914178403229,-12.10345925,-12.38644915,14.431968427559458,15.562485774226007,3,3,1.0517115020444607,1.0690124717578076,0.003137055,0.003516067,6.798628629635677,7.065370441245396,73.61980514311225,74.83087302304652,66,65,3
4.832259619865455,4.740565962,5.000563433014482,4.921986921783143,-8.497862268,-8.510915467,8.641782065722623,8.45837047,5,5,0.7993131784445848,0.7809811171411449,0.002444289,0.002795904,4.026700388,3.971729812381161,57.55054884801011,56.23064043416244,66,68,4
14.994326824564757,4.910191340436882,14.996399131830644,4.997848055553039,-42.08543377,-9.646373649,18.146851362507256,9.033915435469272,3,2,2.1547659751871455,0.6867350390910147,-0.162576426,0.000839338,11.031722060592525,3.971380516873184,155.14315021347448,49.44492281455306,71,63,5
6.324124576771047,6.113086339119475,6.359623873636812,6.149550274612107,-9.617530437,-9.320247515,11.397420219569078,10.931084589698164,2,2,0.9305866217706922,0.8915994269974421,-0.002928095,-0.002943149,5.356520382034037,5.175674618,50.25167757561738,48.146369057861875,51,51,6
4.269341112577563,4.186553867119749,4.336361680824355,4.252369743015836,-8.742845455,-8.820310549,8.355211197326238,7.9901632727543666,7,7,0.7737602798156614,0.771851804,-0.001607602,-0.001376409,3.3232256982871564,3.260924164399473,58.80578126599027,58.660737066407584,67,67,7
4.437125715583606,3.8113217080544444,4.439898713,3.811339714466507,-8.49401541,-7.124613039,5.817465085431191,5.3874312635778985,3,3,0.6400166212428223,0.5494967713684801,-0.001686101,-0.001505447,3.593340130133966,3.1197299173463224,34.560897547112404,29.672825653897924,45,45,1
3.9983951254506027,3.3961986332213994,4.033519503,3.4290856243054306,-7.16791925,-6.164509623,7.568488701200055,6.508822380366928,4,4,0.6515211850159895,0.5653763038017972,0.00152498,0.001661232,3.184863706379315,2.6544586318086574,50.81865243124718,44.099351696540175,68,67,2
5.257769910605756,410.24289945992786,5.2579770174852225,410.65688356400506,-6.022977145,-412.3566293,11.925012174371938,1203.1503527028792,4,2,0.7207657635816856,52.05755532395527,-0.000530617,-0.067720734,4.082763639367974,284.24313933190746,50.45360345071799,3644.028872676869,60,70,3
5.536612931508705,4.731700492390445,5.5595737995576515,4.764466103185257,-7.859509344,-6.94791633,10.026690729447903,8.414917534249923,2,2,0.8255395095712925,0.7213255175169243,-0.002130208,-0.00220548,4.717750123748028,4.064196286883535,44.579133516849794,38.95157794591391,49,49,4
4.991551840203137,4.416507385348557,5.058345792,4.468651174,-8.038632777,-7.004729052,9.342393245826763,8.403183176240582,3,3,0.7493280295436144,0.6537489049362548,0.001655992,0.001460284,3.9987410389713705,3.492102678676178,40.46371359535518,35.30244086655776,48,47,5
4.782272008241647,4.522130433769817,4.800390612,4.535009565592812,-7.96210127,-6.995269372,8.851865312660633,8.478309747572576,3,3,0.7154236067325948,0.6524593783767203,-0.000866127,-0.001051337,4.113954403984599,3.918414620234047,53.6567705,48.93445337825402,68,69,6
3.9947197014245432,3.5033087570692083,4.029826180469983,3.5415276900993895,-9.467288438,-8.430327078,6.151170257992033,5.352609909054971,6,6,0.5919538208332533,0.51878253,0.001748597,0.00147623,2.9200962345414148,2.5283753812800316,44.39653656,38.908689782604824,69,66,7
6.597089883769766,5.790824478526427,6.703636912085578,5.902203636981453,-11.57197539,-10.3573846,12.423796096443418,10.86368015,4,4,1.1683388559414694,1.0288404646993434,-0.004183233,-0.0038681,5.3981321406682605,4.717069413381367,77.11036449213698,67.90347067015666,63,62,1
5.506991969158433,4.831485938,5.591000403214065,4.897843077108076,-10.07069612,-8.661032508,12.68241953552087,11.29888051,7,7,0.9750194829928208,0.860384257,0.002258171,0.001973211,4.116333394027049,3.586609659498009,74.10148070745439,65.38920355871377,69,69,2
6.0233196817772345,5.293771739809162,6.061701119543316,5.322502533018515,-9.087188334,-7.563666263,13.048361681324264,11.580343252670163,3,3,0.9688375379671658,0.8444433365310875,0.004163979,0.003317984,4.782386078739369,4.215311119943837,65.88095258176727,57.42214688411395,63,62,3
6.3175976125231506,5.547122814471874,6.335239960089123,5.561294549318819,-6.704372485,-5.851258939,15.134041842488227,13.304807155647666,4,4,0.9074832762879991,0.7893567756470462,-0.002535029,-0.002535029,4.774277192494704,4.195253981030974,65.33879589273593,56.833687846587324,66,66,4
6.190053958540343,5.457308142369217,6.305738299758138,5.560146046,-12.19823315,-10.88775896,9.980169222449785,8.781785091478643,4,4,1.0843322613047028,0.9602339911262155,0.002661415,0.002437988,5.065625767033523,4.451374388927204,67.22860020089158,59.53450744982536,57,56,5
18.10100027189138,4.880404225120397,18.185480690021695,4.948386339798966,-52.08314626,-11.64763056,17.566808818627027,6.612905608891181,3,4,2.622935752287704,0.7502613355556739,-0.20269675,0.001661586,12.68342766,3.6178711617615766,191.47430991700242,54.76907749556419,72,67,6
6.040461488126039,5.488479745579313,6.130394110428277,5.567794255879332,-11.61384878,-10.60753501,10.138119014727494,9.041833736,3,3,1.0238613685321143,0.9224734258917118,0.001912017,0.001955596,5.059709548740834,4.631333404761537,76.78960263990858,69.18550694187839,69,68,7
0.5236159648720647,0.8240531559458191,0.5239661638090723,0.8326277845429662,-0.964399615,-1.61251389,0.7718008441226647,1.2280911249629844,3,1,0.085901976,0.07898249,-0.000703139,-0.001011995,0.45186573981942013,0.677174839,5.325922485918891,4.896914370108716,26,23,1
0.4497889338813145,0.5292083556239907,0.4796933538740249,0.5671542470861551,-0.961329198,-1.156076788,0.6662892349540224,0.6498467444723935,3,3,0.085359978,0.096087265,-0.000316144,-0.000662397,0.395036023,0.4644318699573935,4.609438806015722,5.188712311316568,21,27,2
0.7992869163235409,1.315910922929019,0.8144184141078596,1.336905996548658,-1.757588656,-2.554810872,0.6774930860219921,1.2177919246176607,1,1,0.086536392,0.12316599413095843,-0.000715087,-0.000760251,0.6564453875789453,1.1348041957244805,4.672965147026567,6.650963683071755,20,27,3
1.2064667960280697,0.8833813096009416,1.2224015891869826,0.8994007511869807,-2.265052477,-1.096052264,1.7428738837840074,1.6115325505722105,3,1,0.10003950421054206,0.079113703,-0.000513357,-0.000529917,0.9554719605074857,0.7611143592420162,7.402923311580112,5.854414008203936,33,28,4
1.0873557022090512,1.2607274374666984,1.1154112608845455,1.2793298229647834,-2.33196915,-2.331051311,1.3196402916461114,1.3074586119645224,1,1,0.081345983,0.086338775,-0.000827996,-0.000734156,0.9016906370798597,1.1036570594047097,6.019602737862947,6.389069352903903,23,30,5
0.5810816730699554,0.5978822308120807,0.5817755594178565,0.6301964938443846,-1.118264688,-1.195381871,0.9283337700622659,1.2226719416163143,2,3,0.08301464,0.10398250413054871,8.279958887479649e-05,-0.000722615,0.4570852799519733,0.5060360205868781,4.482790582706817,5.615055223,20,32,6
1.000533127086613,1.4666039162928106,1.0019419515622765,1.4902739599171886,-2.120842388,-2.342920604,1.735367010204077,1.918919373995335,3,1,0.1301793002901741,0.10412567505833853,4.0249800147475425e-05,-0.000494498,0.8055962926991657,1.3466048577042713,9.242730320602362,7.392922929142036,34,30,7
5.604611445,5.436718561981108,5.650956653362215,5.4756921760390584,-11.21583772,-10.90048616,8.635025645097505,8.192180093,3,3,0.860128343,0.814406668,-0.002499042,-0.001919445,4.351002508338674,4.183055018051223,46.44693051791852,43.97796007791074,49,48,1
4.977336099774301,4.635282936423715,5.044709687,4.702265859250598,-11.02147416,-10.42051497,8.471302081108549,7.667046187216401,5,5,0.7106218647781779,0.6741347692502493,-0.003455983,-0.003449983,3.689059988333277,3.4569299232013644,48.3222868,45.84116430901695,60,61,2
5.493402412152582,5.322175504909725,5.540191507191274,5.365581088,-11.49311575,-11.02301454,9.534077489807675,9.095741596773925,3,3,0.7819930102629467,0.7535322808823751,8.688845746120969e-05,0.000183999,4.604286767479863,4.47978312,62.55944082103573,60.28258247059001,69,68,3
6.2102666149360815,4.581156304957395,6.230180799327174,4.590623883474598,-12.12403514,-9.518300114,9.310902725,7.749991226,3,3,0.9362810566030197,0.6390161495044908,-0.04454268,-0.00377846,5.288427039476603,3.619520089714676,65.53967396221138,44.73113046531436,67,61,4
8.047462348766325,7.973116703423288,8.086478732697852,8.002981434774492,-12.09139426,-12.13732353,13.808301814510598,13.378287789150772,2,2,0.9604493285084368,0.9487127302377325,-0.001896863,-0.002130208,6.679883986638563,6.6470690700204775,51.86426373945559,51.230487432837556,51,50,5
4.526196049,4.2629416512973295,4.707670045524208,4.452647331415682,-6.178881436,-5.563671206,9.806905574438025,9.289175833943315,3,3,0.75974559,0.7172955640874967,0.002310861,0.001926972,3.6839886945547997,3.476180890704272,41.02626188129301,38.73396046072482,51,48,6
6.299538616,3.9488879840553275,6.363751612,4.009501225927714,-14.75546109,-9.578271432,8.946103904305236,6.5975337388183535,5,4,1.1410252161477297,0.5960162120205262,-0.059505654,0.001760801,5.216948461543476,2.8895729848075775,88.99996685952291,46.489264537601045,76,67,7
5.5743367698266235,5.175093789729358,5.577737300886939,5.179180896466689,-8.703969146,-7.339842272,11.571129744949863,11.055287816465734,3,3,0.7103774033227155,0.6384140896283842,-0.000959008,-0.001493537,4.451263720080408,4.140738699123181,55.409437459171805,49.79629899101397,70,71,1
8.028719485633676,7.303552704,8.05604344,7.319556463,-11.81457246,-11.10565902,14.56405582715454,13.041638598775991,3,3,1.0160955829013678,0.9089887723340124,-0.006323326,-0.006047327,7.021304502851235,6.3728768314865984,84.33593338081353,75.44606810372304,76,77,2
6.097944847,5.287720214549461,6.139231564076221,5.336556971939493,-10.69009246,-11.2326883,10.883142619200834,8.261666642883183,4,5,0.9820705418631923,0.9333834316717473,-0.032329476,0.004381926,5.149328378192477,4.354997337886908,74.63736118160261,70.93714081,74,73,3
5.603105449,5.164502929535824,5.616196452835435,5.184166471247508,-9.59837922,-8.462588972,10.853911788283417,10.520751596662882,4,4,0.8530320964791159,0.8080634982378668,-0.000366834,-0.00120007,4.574880174422243,4.192891294632733,66.53650352537105,63.02895286255361,73,71,4
5.902508543514632,5.435095157439109,5.963607517,5.508825421317938,-8.902634064,-8.458504669,10.93305667326198,9.854619109849253,4,4,0.876506426,0.818532226,0.001396471,0.000889787,4.8427118801495865,4.480092148585257,57.849424105904575,54.02312691981308,58,57,5
6.4627455174186865,5.901456109390522,6.467032089062567,5.902628745995142,-9.846000384,-9.026957514,10.24980935449972,9.704764278305479,4,3,0.9538339057440639,0.8752022040032252,3.969843302216383e-05,-0.000396984,5.529125369304094,5.055772009115878,68.67604121,63.01455868823221,65,66,6
6.048944022265026,4.751378262633907,6.092319449988763,4.775360354228441,-10.90778298,-11.41088948,8.972211277044982,5.349189201811151,3,4,0.9615865228147169,0.607215377,-0.037406893,0.002963354,5.303602207380756,3.5841822745878833,72.11898921110377,45.54115329345203,72,66,7
5.3023762113093165,5.2293888078577435,5.308769210356293,5.235270791420549,-8.726508315,-8.955448572,9.72668127,9.32674928,3,3,0.7101001444758697,0.6902339334631111,-0.000647997,-0.000683997,4.308390604,4.254140512033376,48.28680982435914,46.935907475491554,61,63,1
4.346944341266192,4.071839539755387,4.420202796401303,4.140943495902875,-8.531010764,-7.800378201,9.54593896,9.225438678678222,3,3,0.6210672989066688,0.5922231482936116,0.000866127,0.000887917,3.339149021339475,3.0399549612775045,46.580047418000156,44.416736122020865,60,58,2
5.985895462820352,5.857311424591619,5.988316656519515,5.858221206451649,-8.897295706,-9.005659954,11.617330925181722,11.225266344916033,3,3,0.8087438624511083,0.7682280867311371,-0.001028907,-0.001114142,4.818601899264224,4.711738303455522,54.18583878422426,51.471281810986184,62,61,4
3.1638660461307704,2.9960312345603834,3.167268816993217,3.0022725878722767,-5.521827159,-4.854872169,6.371330612179241,6.159694638997738,3,3,0.4517070519291376,0.4337693473707245,-0.001193288,-0.000767114,2.5143541136448593,2.3970111588012704,30.26437247925222,29.06254627383854,59,57,5
3.8563507030844564,3.588465360984199,3.975868105303726,3.7290403677081962,-7.041909843,-6.413562389,5.681025185,5.282052132001224,5,3,0.539581813,0.5109311599940924,0.001034995,0.001017252,3.293763127336643,3.128107642971249,37.23114506340286,35.25425003959238,51,52,6
3.2088093653873058,3.1795594365027084,3.2785458074327103,3.246296028918657,-5.174407818,-4.946310325,6.192554401405226,6.623819189503511,3,3,0.510733544,0.4807507116564267,-0.001023806,-0.001504938,2.8219683229118258,2.8332671173099153,37.28354871,35.09480195091915,59,61,7
3.977776003457598,3.6928504739768506,4.042724006454141,3.7661102444880132,-4.750614279,-4.542941923,8.786748108686176,8.040879581265834,3,3,0.478816419,0.4433090364739679,-0.003084285,-0.002639237,3.409140790197303,3.1898176518396655,37.82649713,35.021413881443465,65,67,3
5.006281123972483,4.936457279,5.022848500329324,4.952919178393855,-10.8271667,-10.67238662,7.045617712280452,6.639295041147647,3,1,0.6630756895681771,0.6253536705833598,0.00228828,0.002401188,3.701730074590724,3.6896941784020054,35.80608723668156,33.76909821150143,49,49,1
4.519506586880212,4.442531223073284,4.639950964386436,4.569313464885043,-9.560370924,-9.409302196,7.935317946059364,7.683363262553061,5,5,0.6882077954482734,0.6873982139785704,0.000952762,0.0010832,3.4828899414769166,3.4417458602505504,49.550961272275686,49.49267140645706,62,64,2
12.444871043883278,9.035417259903872,12.795226759552255,9.408407399,-27.57678528,-17.67216756,16.64055388797385,14.328846997492173,1,3,1.7383142342994233,1.1005747243590411,-0.085175824,-0.002988725,10.730314636635965,7.805193584550507,125.15862486955848,79.24138015385097,71,65,3
19.295578617028752,19.128654142929545,19.306621242577982,19.140761648034324,-39.44717408,-39.10205214,30.574865357216595,30.26516145947149,1,1,2.0727580490792334,2.0443604791460546,-0.011749378,-0.011930138,15.330038088214016,15.240252631962077,145.09306343554633,143.10523354022382,67,66,4
11.984247476728154,11.931480835715968,12.24416398555016,12.183899168337827,-24.15367492,-23.95658702,23.048000140572647,22.783212048876084,1,1,1.046467253446219,1.0217108479041834,0.009447645,0.009314954,9.679675583437984,9.617505092739895,80.57797851535886,78.67173528862213,75,73,5
4.284193997905406,4.151481703913704,4.439842942231888,4.310455217948695,-8.967252457,-8.959206419,7.305812122,6.720472922062938,5,5,0.7258091877473151,0.7080595650030275,-0.000980521,-0.000495708,3.3757667079727667,3.2627048979928794,54.43568908104863,53.10446737522706,63,63,6
3.3415508559117195,3.073960158322837,3.4145776404569266,3.1745444308365114,-7.767226996,-7.33379635,3.1281842745321202,2.7168238204799744,2,2,0.44601551113438637,0.41112907430340445,0.00255926,0.001942027,2.5887339389857393,2.3463316913804477,24.084837601256865,22.20097001238384,47,44,7
4.988218503092672,4.792575970054913,4.992933243393322,4.796806731672589,-8.665871024,-8.220656517,8.684726647,8.379631810559676,3,3,0.5885602395907248,0.5589360679143381,0.00106134,0.000880687,3.7733212586921097,3.6296003498621427,31.782252937899138,30.18254766737426,44,43,7
8.411912907183686,7.6555672706006295,8.554744693252104,7.783075459287888,-17.35194401,-15.64895189,13.523469845555823,12.215961000140076,4,4,1.3129979633512499,1.180954677576384,-0.002675064,-0.002174627,6.997141663889405,6.411994086818917,118.16981670161249,106.28592098187455,85,86,1
9.409059147312947,8.662961824845876,9.586298288341622,8.820102034736921,-12.18216547,-11.06211485,18.36617547389974,16.993912928259597,3,3,1.2518033982165975,1.1701759968688237,0.000888214,0.000692506,7.566976416351672,7.000041641152677,67.59738350369626,63.18950383091648,48,48,2
8.515446329,7.663157360737873,8.561582328417064,7.703964039525412,-18.65139649,-16.8917712,9.389483749224208,8.820378099419845,5,5,1.1090598023451463,1.0364209911252846,-0.001460182,-0.002215448,6.658780513780465,5.977388397118956,80.96136557119569,75.65873235214578,67,68,3
9.449029201144945,8.523879849,9.461560506422694,8.543768394548172,-13.48542297,-11.86225966,17.50473340572459,16.263028313960664,3,3,1.3304852380515353,1.1878567617530387,-0.004102905,-0.003552967,7.912463355619639,7.081648483680932,87.81202571140133,78.39854627570055,64,61,4
8.493334229629188,7.662800258397533,8.499161985290234,7.674088175219424,-17.80850172,-15.85740237,11.408677022574608,11.015356887476718,2,2,0.9341197813817667,0.8802242101597947,0.002123066,0.001395916,6.840502118505037,6.1093676103815815,71.92722316639603,67.77726418,73,71,5
9.030200229,7.909377562002316,9.163745189237343,8.057805824172751,-15.49871865,-14.36133334,16.03216016645039,14.111541398135502,4,5,1.465288468661703,1.2387539552007059,-0.014269129,0.005586212,7.612530370878514,6.426482351345991,108.43134668096602,91.66779268485223,71,69,6
8.770385136202249,8.068236266185215,8.847824630537797,8.127135269368603,-16.05404679,-14.92629481,15.029421976956046,13.933806569740408,3,3,1.1786956819546432,1.0721121142130217,0.001241994,0.000827996,7.403075398844005,6.728368129428033,90.75956751050754,82.55263279440267,71,69,7
8.261221295524457,7.6693227984979355,8.262106271211607,7.669327134424268,-15.11534086,-13.41189208,15.969390233526562,14.655077601608012,7,6,1.315854986771247,1.248921549700862,-0.015868405,0.002920733,6.533610698296395,6.230188310474915,118.42694880941222,112.40293947307758,84,84,1
9.316154925593194,8.299827135926307,9.342533059265048,8.317703960495605,-18.28209671,-16.29950047,12.712456824356405,11.011097542440623,3,3,1.1758053219022329,1.0276612881352045,-0.004843209,-0.004865894,7.764451665,6.915353327810749,84.65798317696077,73.99161274573473,68,69,2
8.600329801,7.242930465662528,8.605061866551013,7.2490331586142736,-11.40773126,-11.07476701,18.47265649681264,15.953374534941554,4,5,1.2932538907791462,1.1109552578352222,-0.01805031,0.005696612,7.0873387121552485,5.675485792389933,95.70078791765683,82.21068907980644,72,71,3
8.570551532435918,7.812892271167146,8.636592543553968,7.862828984978785,-15.05578161,-13.34092547,16.192716436367775,15.107853600256652,3,3,1.3113749649556408,1.142551452887345,-0.00600035,-0.005214278,7.243824762642628,6.627891685451306,102.28724726653998,89.11901332521292,73,76,4
8.537126966389438,7.628821587528475,8.590704265874635,7.678944190174264,-19.67783125,-17.70691017,8.613948938014437,7.5686245197218485,4,4,0.9737927503098345,0.8603291524975434,0.003710648,0.003679982,6.693967230658105,5.944834256046777,77.90342002478675,68.82633219980347,71,69,5
8.726624744266626,7.903455172230588,8.752888273945187,7.939099091105688,-14.32460412,-13.2834183,14.076459533185574,12.648518781896335,2,2,1.0772400984039923,0.9844028331003959,-0.003673291,-0.003417365,7.188992869957331,6.481762477339254,58.17096531381558,53.157752987421375,50,50,6
8.960148377,8.132271565715604,9.053376011,8.229201440180642,-13.3136941,-12.38149954,16.60958833839359,15.079199459920613,4,4,1.3275549806074372,1.2198180529571498,0.00226516,0.002022676,7.374490113048874,6.666440773234711,91.60129366191316,84.16744565404333,65,64,7
6.4585416787932965,5.713610619917667,6.463355840927965,5.716864132287092,-12.30800135,-10.7854097,10.808071946743034,9.983262887053849,1,2,0.7366130769679317,0.662379759,0.003400697,0.002454416,5.180059913063814,4.526624052878321,50.826302310787284,45.704203368212674,65,64,1
5.358739579114047,4.537761197130631,5.360475235410302,4.537975734,-6.99899697,-6.107182941,9.757535190657222,8.327500625180063,2,2,0.7322346544484426,0.6372513952200619,-0.002687223,-0.003387256,4.524875278555226,3.8387993710850306,39.54067134,34.41157534188334,51,49,2
4.200445912018292,3.3902794593661123,4.207037651424377,3.4026757516148387,-4.89026165,-4.121191022,10.015265300688569,7.997581584195388,2,2,0.5356073754697962,0.4620508255642943,-0.003372455,-0.002818907,3.3748057977436647,2.7410187322215105,47.13344904134206,40.66047265,82,79,3
4.416872117546981,3.861749045562719,4.441041109427248,3.883944371067455,-8.928284393,-7.762806472,6.111647573888218,5.293385350403895,3,3,0.6508949040273303,0.550495585,-0.001979663,-0.001234467,3.503083938661421,3.0551921553694013,35.14832481747584,29.72676159698954,47,44,4
3.7441521945959995,411.5019127204517,3.866509431532509,411.90099596761866,-7.500305234,-402.9479643,7.013751767707815,1177.2569579837912,6,1,0.7091894930061403,53.01752109718716,0.000913231,4.443884375935902,3.0544558298251485,292.96622682398373,47.51569603,3552.173914,59,67,5
4.699823824982553,3.982974167663879,4.734834611161386,3.999460793988081,-5.794591562,-4.96246654,10.158801288148553,8.544571728684604,4,4,0.8626050420777435,0.7270494403618355,-0.003405467,-0.003338693,3.817235761306087,3.212797109,52.61890756674235,44.35001586207196,58,56,6
4.038086243948167,3.510086872396432,4.134029873267149,3.6067005513229295,-8.29679127,-7.08680787,6.2248687890440575,6.015239510043701,4,4,0.718304851,0.6208006836639464,0.001216119,0.000905621,3.2889360196470765,2.897499629364196,45.25320561398368,39.11044307082862,54,53,7
9.703439644522275,9.264436467,10.008555499915945,9.553847876,-17.69491774,-18.32760701,15.334010151829267,14.54708525440222,3,3,1.253534608800567,1.1930643416561237,0.008018487,0.007377879,9.059755175,8.616047236969939,117.8322532272533,112.14804811567562,92,90,1
11.175902524397848,10.56542780001356,12.03954032009397,11.467261784233667,-28.11722875,-27.06049499,13.997340048856378,15.852884180541807,4,2,1.8244163855571356,1.6519384651287279,0.004829976,0.004919976,9.056183586709503,8.540192680623493,124.06031421788522,112.33181562875349,64,65,2
13.838359150997745,13.987046612420198,13.893066356275941,14.02834738056485,-22.66838072,-21.44318816,23.00821715607282,24.332479187629396,3,3,1.6041269364921493,1.5387943358090486,0.00998195,0.010625947238932829,11.596846371097294,11.557883120349212,113.89301249094261,109.25439784244244,68,69,3
15.094249953934614,15.58846405112435,15.156960333523404,15.633830268767927,-22.09434681,-20.98183397,22.784131757115286,24.12952875139566,1,1,1.3988081861430837,1.3525969889925487,0.00815576,0.009014805,13.051732541197074,13.663503013489457,110.50584670530361,106.85516213041134,73,75,4
10.157230662477383,9.616242442173561,10.15924374900398,9.619894444566949,-20.39834136,-19.26032097,13.613090853484874,12.103514679127365,1,1,1.0540664588428503,0.9724190852945648,0.004456123,0.003725981,7.947027636441863,7.689195216475784,56.91958877751392,52.51063061,48,51,5
4.394084172666354,4.1584713946753595,4.457439744801108,4.196026652431309,-8.887706384,-7.978199838,7.964628198784099,7.1662698679709464,3,3,0.6703214248871061,0.6255362286820487,0.003599982,0.003389983,3.6387575807754464,3.518278106,45.581856892323216,42.53646355037931,58,64,6
8.61241334,7.643080316653073,8.615569962307273,7.64496255,-14.33745393,-12.63896415,15.05238468338347,14.08819042182263,3,3,1.376268829680155,1.1916330813325708,0.007419106,0.007478249,7.351833340178653,6.446300561969968,85.32866744016961,73.88125104,60,59,7
5.984602465822026,5.705740829784923,6.010875221,5.726508753242132,-8.663116371,-8.078789697,11.807791266332003,11.229739767193248,3,3,0.8310482042091389,0.7519406541340413,-0.005246483,-0.004862594,4.7671412821760315,4.554001914164216,44.876603027293505,40.60479532323823,50,52,1
6.117653243639525,5.871394506063363,6.592177142146688,6.325530375721808,-14.27917705,-13.56183323,6.792179085006547,6.905988821532998,5,4,1.0966631285149122,1.0548479327754479,-0.000119181,0.000301089,5.169197834821511,4.988354633230604,71.28310335,68.56511563040411,57,59,2
4.826435669320239,4.409434819049729,5.0123008544524925,4.589743264635966,-9.450413428,-9.181105186,10.408692243255308,9.410973197225099,5,5,0.8903252176658822,0.8135573684472767,0.001922538,0.001814786,3.980909977406509,3.659858935615714,64.10341567194352,58.57613052820392,66,66,3
5.150086984244458,4.667311482895447,5.202936885353915,4.7196519792538725,-8.564689901,-8.022686155,9.052534304,8.037179205624671,2,2,0.7688088368518186,0.6977249119935315,-0.001241994,-0.001407593,4.337874561878783,3.911638067214541,41.51567719,37.67714525,48,48,4
4.596702639116028,4.120979579013688,4.605205051,4.134231015785034,-7.92967799,-7.230785607,7.063460239116276,6.484310877111952,3,3,0.7176786916507979,0.6421368552444716,-0.000797996,-0.000809996,3.927869189048675,3.502553221744029,48.80215103225426,43.66530615662407,63,61,5
4.7958833038008555,4.727325341453825,4.888200611871002,4.807659281884968,-7.678861361,-7.473696399,11.322672191085735,10.70417708578826,3,3,0.6518708648623456,0.6020021178833409,-0.002202469,-0.002472948,4.1135675473024635,4.039379441489129,48.23844399981357,44.54815672336723,68,64,6
5.243418095478853,4.966342156854331,5.308022653,5.035150225456352,-9.44437675,-8.805375329,8.501073240152108,8.079847150682028,3,3,0.7187524905644308,0.6877594735836446,0.003061252,0.002583114,4.385066687470721,4.186535769864462,50.31267433951016,48.14316315085512,62,64,7
3.5368079935369683,3.500048716000158,3.641905510729679,3.604990757237166,-7.09459309,-6.968019265,6.881869600527239,7.1960374234659295,3,3,0.633738495,0.6154176352732581,-0.00200099,-0.001474084,2.910937971016445,2.8680580575737316,41.19300219278777,40.00214629276178,55,53,1
3.689435065159781,3.638008801158311,3.826606510135045,3.780466185568929,-6.531169679,-6.729709963,6.998802475991315,6.809613586386425,3,3,0.6352158610158892,0.6292149885683778,-0.00246545,-0.002341869,3.1675001438224384,3.128292292251879,41.92424682704869,41.528189245512934,60,60,2
11.801837417849331,3.8156319130303857,11.803405777332422,3.829349808,-32.51075875,-6.442990662,11.647870755862076,7.1738963484201514,3,5,1.4639446039859156,0.6040136678284028,-0.123432928,-0.000436376,8.572965582082302,3.125406695626561,106.86795609097184,44.092997751473405,71,64,3
5.858145880954174,5.839699449005898,5.858371077524247,5.839708001642406,-10.79120823,-10.74105581,9.833200947,9.746156865,2,2,0.6859596696131838,0.6669826254514023,0.000722854,0.000578283,4.467387676877646,4.451407568066731,42.529499516017395,41.35292277798694,53,47,5
3.4253983581808174,3.5732588048745995,3.552484746007162,3.7032557837970104,-6.595139686,-6.945719959,5.849675569,6.3078664743070645,4,4,0.5897156899870841,0.6116030620278797,0.000267881,0.000225264,2.871134896329206,2.9932059601784875,39.51095122913463,40.97740515586794,55,56,7
3.900420179598841,3.9291926657716743,3.9105063903249926,3.940654194830786,-5.54641562,-5.617641823,8.278210391920732,8.321747330311645,3,3,0.5682514166997168,0.5738848223703434,-0.001601518,-0.001666886,3.2283657273235455,3.2441624578324366,42.61885625247876,43.041361677775754,69,69,4
3.4432067337476746,3.3654664255104416,3.5239950429189446,3.4533239024611895,-5.075759136,-4.929770449,5.884924207332272,5.731282553891674,3,3,0.6056587542815228,0.5915164093258242,-0.003419316,-0.003587982,3.015757756835828,2.967242047942913,32.09991397692071,31.35036969426868,48,48,6
4.423177416888579,3.7375355805614165,4.597619968569535,3.876463070403611,-8.280572522,-6.599015179,9.282511091438902,7.883578500276361,3,3,0.7807680862175068,0.619675362,-0.004516341,-0.004237834,3.742664308064057,3.119041025854292,42.16147665574537,33.46246954418695,51,49,1
4.942795348345682,4.035356417496304,4.948111191398257,4.036006485719368,-7.768088239,-6.425621384,8.410326173530185,7.3058949685469985,3,3,0.7764066686062816,0.6107409026936671,-0.00405598,-0.003113985,4.296218016416516,3.434485514985318,52.79565346522715,41.53038138316936,63,62,2
6.615846221841189,5.762209214437633,6.643700949326018,5.817117855003666,-11.14192049,-10.34716067,10.732840495683444,8.685484853820867,2,3,0.8666361271337897,0.7544076090156685,-0.001640937,-0.002386134,5.380275428925096,4.660604079971395,46.79835086522464,40.73801089,48,49,3
4.973067054378706,4.036313463549677,5.0637720219364475,4.118158548787315,-8.105820185,-6.837330926,8.217783690209432,6.664041974181683,4,4,0.8294581741698467,0.6862588304704853,0.002607569,0.002026736,4.234993775723528,3.4329553121141343,54.74423949520988,45.29308281105203,61,62,4
4.223599421095983,3.2271489705658163,4.249766506296282,3.2410701028932345,-5.659977223,-4.311023755,8.825416494232948,6.866870859396513,4,4,0.7689110351487014,0.576052171,-0.001291426,-0.001359396,3.506228841474113,2.652634481536064,50.74812831981429,38.01944330007753,61,59,5
4.317435142662263,3.428306902322692,4.397852792358479,3.481064843928425,-6.981837521,-5.214919053,7.1118512944778525,6.018178253664833,3,3,0.8296986135575232,0.6623806211233396,0.003665764,0.002965731,3.7820446408462964,2.9881255274643976,44.80372513210625,35.76855354066034,49,49,6
5.524432083472849,4.738506059653538,5.595792296052594,4.8229228201779195,-9.602873454,-8.687124774,10.257199674355501,8.433538945810986,3,3,0.7424208915186459,0.6283283280780726,-0.004950482,-0.003650179,4.527409281224278,3.925388241895736,51.96946240630521,43.982982965465084,64,59,7
8.658206248840878,7.282005994931757,8.658283137558415,7.282075914464785,-14.36325447,-7.654142284,18.88575931331767,17.016052866084813,3,1,1.0384878292723874,0.7349034374529831,-0.03764454,-0.004261252,6.7599912838499305,5.8095991647416465,101.77180726869396,72.02053687039235,97,89,1
7.472513012441051,6.885054883107597,7.578724166534872,6.972734452385584,-10.64227917,-9.554001669,14.939559255994585,13.848807705037796,3,3,1.1726898341397987,1.0580773680689486,0.002566787,0.002182898,5.966934380014046,5.445321876781172,63.32525104354913,57.13617787572322,51,49,2
9.771106850019287,9.387085055866487,9.84219084,9.462531360731832,-17.93783014,-17.18233322,17.557143752714545,16.79232128702095,3,3,1.3129376003651763,1.2141377254845285,0.00193405,0.000994831,7.6438093992875915,7.274800675,86.65388162410163,80.13308988197888,59,55,3
8.602772758,7.921024958026634,8.706989782763822,8.018025498510983,-16.02444531,-14.76170196,13.465278135795218,12.325434497966638,3,3,1.2229892703473535,1.1201034859220809,-0.004709977,-0.004649977,7.358859764344119,6.785046025186208,83.16327038362004,76.16703704,66,65,4
7.488653033543846,6.9460865014009805,7.4977092462311505,6.955469417299263,-13.23858449,-12.38037243,14.12797286820251,13.199429354704826,4,4,1.197231573875745,1.1036504157958034,-0.002843192,-0.002264812,6.033455549470943,5.562333061807942,80.21451544967492,73.94457785831882,61,62,5
6.631475881975845,6.263356639734397,6.733302572718619,6.345812425476531,-10.04454995,-9.410336435,13.358436978471817,12.614402602561531,3,3,1.1481896718262792,1.0604494563638387,0.003387256,0.003056058,5.458198774032581,5.106212756237314,62.00224227861907,57.264270643647286,52,50,6
5.533827961408368,5.0537494087688835,5.657472271,5.155069271828214,-9.434254041,-8.447849319,11.458002807412395,10.532312151420594,5,5,1.0740954596444192,0.9763239911772597,0.003167984,0.003335983,4.5791940554280375,4.170608544658834,73.03849126,66.39003140005366,64,65,7
5.936727183,3.5768081939249146,5.936819522818017,3.577860167620328,-13.69644633,-4.031393101,10.79697409780656,8.514023817680844,6,5,0.8937121201068002,0.49766629782251703,-0.039068592,0.001789063,4.454595252748023,2.7972745520488114,74.17810596886441,41.30630271926891,82,74,1
4.847680905626628,4.430001718884789,4.852664583936853,4.430117603941476,-8.388933162,-7.862531448,8.642406132072981,7.7141913917233165,3,3,0.7651907719725826,0.6616731540269734,0.0018517,0.001294684,3.8499115911129986,3.446157512914991,41.32030168651946,35.73035031745656,50,48,2
6.911318648060461,4.514748768983114,6.913386957381607,4.5220998925181455,-13.59021642,-7.180210501,12.091515248335439,9.451379022436923,4,4,0.944396762,0.6597703093495225,-0.043895444,-0.002734719,5.441303739771039,3.5470695547555513,66.10777335292333,46.18392165446657,68,64,3
3.287052692788207,2.706845595216461,3.3317311965879646,2.756461929148192,-6.326761786,-5.022075878,5.022822237123124,4.339602822286051,2,2,0.4596290452179238,0.39328328044711114,0.002470633,0.001869668,2.8415085224380703,2.352871765623357,28.037371758293354,23.99028010727378,50,49,4
3.3176893558844984,2.7776652303062637,3.389291938,2.8412932738579317,-5.902631856,-4.7527551,6.251904567,5.684784571113946,4,4,0.5170425080514768,0.4329141230938364,-0.001607286,-0.001455081,2.7492399704184227,2.261130561780038,34.641848039448945,29.00524624728704,57,53,5
3.7057212875815497,3.270815198682052,3.7608400936010407,3.303062483206802,-5.582557511,-4.775865194,7.366785510658832,6.545934044463765,3,3,0.6172570689403757,0.5226060293656121,0.001603301,0.000812941,2.9990320211476846,2.585867417281507,33.33188172278029,28.220725585743054,48,46,6
3.085432922781283,2.6518413488293366,3.130009744598849,2.6852670261198917,-6.428508407,-5.333907439,6.251678166241814,5.373807256902031,5,3,0.5033896679693893,0.41740828105341826,-0.002239087,-0.002075821,2.412086632473599,2.101489985,35.23727675785725,29.218579673739278,60,59,7
5.4600641429494585,4.135124099940052,5.464169226985164,4.136975934025726,-8.025742105,-5.581204349,9.365284785635003,8.085869165895216,2,2,0.6962885310856467,0.5206184809054806,-0.026195386,-0.001569186,4.745436052850381,3.4360216092295177,42.47360039622445,31.757727335234318,57,53,1
4.951942516,4.722950195834882,4.985815981832929,4.752063759388769,-8.637268706,-8.030895619,8.672088797752368,8.306040636,3,3,0.6675140167067379,0.6235550020466639,-0.001666607,-0.001847068,4.2180664205385625,4.024032753,51.39857928641882,48.01373515759312,72,69,2
4.167707946272348,3.5709043693781615,4.231613455338234,3.639122544232634,-7.456770992,-6.348957076,5.898572338575122,4.954598762928716,2,2,0.5240144563098992,0.4385284706882475,-0.002024826,-0.001934499,3.4498637352844437,2.961934862008364,28.296780640734553,23.680537417165365,47,47,3
4.7028093128788715,4.184805218462297,4.704297126778032,4.184882851,-5.560529749,-5.451665117,9.745365016695182,8.485111156,2,2,0.47724923019197535,0.43268024399536326,-0.001169264,-0.000430782,3.8052986665741595,3.4001251637075876,34.8391938,31.585657811661516,62,63,4
3.8491379893386886,3.281614351,3.8493917415179713,3.2868849864126135,-5.109303857,-4.411891317,6.727603046290356,5.818040174006502,2,2,0.5307639366062736,0.47943207161338863,-0.003071112,-0.002762495,3.3050949965986547,2.8249778676858015,28.661252576738775,25.889331867122987,49,48,5
4.509721305359736,3.892472146870705,4.584234215846276,3.965605012,-8.261659377,-7.441112412,5.962456718351908,4.844542627070882,2,2,0.585400074,0.5188902277426648,0.001211885,0.001482865,3.8199143406177702,3.272511403062458,31.61160398781868,28.020072298103898,50,49,6
4.4392972424078225,4.298063352786095,4.512087310269128,4.353553316,-8.034827899,-7.817104851,8.714951797,8.132099641324952,4,4,0.6079916216189543,0.5401898819568612,0.000249616,0,3.5856995756529866,3.466152420813822,40.73543864846994,36.19272209,59,60,7
7.4934028522836265,7.360261650976806,7.754935502737197,7.638477823593306,-15.37623473,-14.97756388,12.95228031856001,13.173202074755368,3,3,0.9665302115947575,0.9248765201691277,-0.001174249,-0.001241994,5.7727347095519965,5.641570652,52.192631426116904,49.943332089132895,46,45,1
4.880687527881252,4.560511734312767,5.157901636944461,4.837886090650317,-7.323369023,-6.538102748,9.081181274272586,8.548642173202188,4,4,0.9085575616875513,0.867998159,-0.00114851,-0.00120193,4.159402296570738,3.903388038948308,55.42201126294063,52.94788768869081,52,53,2
2.5513620433151285,2.417610743489832,2.595667846005173,2.487960700973255,-3.9523245,-3.787075327,6.110409493544016,5.715203047534676,3,4,0.3938697011508282,0.37662051053410955,0.001024897,0.000146414,2.078703898490653,2.048992875,31.903445793217085,30.50626135326287,67,67,3
4.506093740812606,4.085633349968529,4.519364591758186,4.094052260222957,-7.958887098,-7.419041897,7.852380932120217,6.943378639872033,3,3,0.58145705,0.5210496331178812,-0.001604951,-0.001298706,3.7285540425411745,3.3670001736249984,41.86490756666839,37.51557358448745,66,64,4
11.885104948740844,3.8945807817881444,11.934779633137751,3.9330867591104686,-33.91542138,-6.542055648,11.841353175488862,7.324817961549592,3,3,1.514309104046924,0.40189173245346105,-0.123404507,-0.000888716,8.444289052,3.1672956609764364,112.05887369947239,29.739988201556116,73,63,5
11.347576270164152,4.212488614940907,11.347577152642058,4.241341193224684,-30.16842991,-8.005982086,16.52816788673051,6.456950471223033,4,3,1.7874791596280362,0.5569549055023936,-0.119476308,0.002536466,8.458941200913452,3.548341754500131,125.12354117396254,38.986843385167546,68,64,6
4.172438407,4.324377709816131,4.265263863986472,4.399670376147886,-6.895299757,-6.514666048,7.791948471245615,7.266889531554512,1,1,0.40851090519810174,0.37132236868665036,-0.000701997,-0.000725996,3.5708530452905975,3.7990391278819375,27.77874155347092,25.249921070692224,61,57,7
6.2470734526647815,5.879776749233256,6.303764411211181,5.944038426324535,-13.80486021,-13.3519467,10.315582090288443,9.254302525934008,4,4,0.9751482172521557,0.9261208350803265,-0.001749141,-0.001350668,4.903727393689225,4.604259592488916,77.03670916,73.16354597,71,68,1
7.394509980754414,6.964703776518672,7.447410240165156,7.020945464,-9.772155213,-9.40255157,15.031252562467362,14.681955063880453,3,3,1.0558052891803602,0.9882127036590981,-0.003565902,-0.003582462,6.241440535,5.757746320274182,78.12959139934665,73.12774007077326,69,71,2
6.793051055656252,6.589030950413731,6.907516779031964,6.694487009,-13.66809774,-13.10158521,8.207944890077513,7.933996772791858,3,3,0.965004968,0.9317084014012456,-0.002386134,-0.002438824,5.435444191708977,5.309712677183917,52.11026828189706,50.31225367566726,47,47,3
9.124787825038437,7.476495300939138,9.127698806096717,7.482777113646832,-15.08045163,-8.049861652,18.55913353983801,16.05977413171289,2,2,0.9663803321369948,0.7135946909748295,-0.044701025,-0.003677592,7.366349324,6.131196509874019,73.44490524241161,54.23319651408704,72,68,4
5.906464120279751,5.544571285243642,5.985857603957563,5.628979658537749,-14.04727634,-13.30987624,7.802537906609353,7.275611507778981,4,4,0.7816024024389958,0.7482603541465813,0.002606064,0.002308835,4.523009061197347,4.217487103316616,60.183384987802675,57.61604726928676,65,65,5
6.992461866154676,6.784916090864144,7.110477892752338,6.891684515232976,-11.26123204,-10.78812711,11.77461748428044,11.820602937443773,3,3,1.0791990040106696,1.0342084671223266,-0.006289366,-0.006209969,6.2217872988917104,6.037776801715806,77.70232828876821,74.46300963280751,66,68,6
11.191868931679892,6.609126706880599,11.206955146493977,6.609917503836747,-22.92474932,-12.30537478,15.066766369001705,11.251692513456353,3,3,1.8044586162476306,0.8980229117819206,-0.081597023,-8.54E-05,9.549611243031915,5.205871724045452,111.8764342073531,55.677420530479075,60,55,7
0.20881576101887106,0.3693276836040898,0.21032998864854324,0.3693313352444869,-0.4379312611544484,-0.5787057613778304,0.25708281088562096,0.7736001556854367,3,2,0.0377531280445258,0.05563430375333071,0.00010538129493156346,-0.0004290524150785252,0.17351591986331927,0.28526625407020195,2.038668914404393,3.0042524026798585,0,8,1
0.6033085685159784,0.44667941966973473,0.6053205986725355,0.4472359686064516,-1.2677090868214114,-0.5998520254322893,1.0897632706301397,0.6006372718893717,2,2,0.030645321656588613,0.02326998352663223,-1.860664918534753e-05,-0.00019769564759432925,0.428596274555152,0.42081184194177135,5.4242219332161845,4.1187870842139045,15,5,2
1.2667276223767203,1.2428351209760118,1.2752976641087574,1.2502823342595253,-1.636724163123412,-1.6251376513097149,1.9227061677890518,1.9465915691626625,2,2,0.08705363959701415,0.08679359089253863,-0.00012308046994902628,-0.00011189133631729447,1.108966997309833,1.0784650800965192,6.3549156905820325,6.3359321351553195,22,21,3
0.8092791613655655,1.088192423872036,0.8175622329967431,1.1013384791282421,-1.5229953372970717,-1.5787502231116026,1.5044882445100698,2.1220846493932033,4,2,0.10753303955783064,0.13155625870731288,-0.0008159959483313748,-0.0009659952035393396,0.6426369808516698,0.9006035364908023,7.312246689932484,8.945825592097275,26,34,4
1.0100589688186319,1.0715165485445772,1.0163711676318468,1.0797465291494666,-1.3600445429927603,-1.3144738317754021,2.04283643095252,2.2075799567287633,2,2,0.10363654612802976,0.11031771246156202,-0.0004990660151357974,-0.00047638119626598947,0.806578245407214,0.8507029688577169,7.461831321218143,7.942875297232465,33,33,5
0.625112288071893,0.9208817742083046,0.6265240938451473,0.925144381220084,-1.6830093150221757,-2.3647856331208303,0.6836897388530288,0.8334660223062259,3,3,0.08001264112038352,0.08595495898370521,-0.0010909405290936741,-0.0013371014689917266,0.46068683179105974,0.673007975146861,5.840922801787997,6.27471200581048,18,21,6
0.4303498074354711,0.7380716193252418,0.43126007365572677,0.7398092080250862,-0.5585296172247112,-1.3243383271161913,0.7727853740742436,1.5166507848892676,2,1,0.03819095355143126,0.06047823921516132,-0.0001379993147913275,-0.0005854516385086885,0.37817890435105234,0.6234601998240882,3.7427134480402637,5.9268674430858095,11,29,7
0.9491549301991252,1.1562758602255963,0.9494730538133981,1.1572278359040198,-2.9414051520545934,-2.0207698407088626,1.1678104323722664,2.289799062881261,1,1,0.028884419998186785,0.0208106767133627,-0.001181174547479436,-0.0007522385329476235,0.7894756029104607,0.9602221234838408,11.178270539298286,8.053731888071365,35,16,1
0.43428093077097557,0.38979460150819234,0.43598296908523054,0.3901262803611554,-0.540917220187448,-0.8105094672188878,0.8300704910378853,0.4053813148355894,2,2,0.046469459419918195,0.03955440435515452,-0.00012176410128647927,0.00012176410128647927,0.35907497827896545,0.32138592486063366,3.113453781134519,2.650145091795353,12,7,2
0.8293559682036604,0.6003003895716552,0.829432177132276,0.6021270402378466,-1.2510097846545192,-0.8504559200979674,1.6633667885030512,1.1183223031306224,2,1,0.07896256200027327,0.049174436675752595,-3.916196771104953e-05,0.0001958098385552712,0.6448231681092326,0.5261947055955419,5.764267026019948,3.589733877329939,24,8,3
0.8430801595094557,0.8410481361486802,0.8432742472254539,0.8447935281647877,-2.2760748849004724,-1.956789297212538,0.9310458712478838,1.3384920343569349,1,4,0.09825622201469138,0.09641745301585505,-0.0010323746207807538,-0.0008594387705991922,0.6364297789757907,0.6330054709328266,7.663985317145928,7.520561335236694,21,25,4
0.5348565089254741,0.6555662318651022,0.5352203428688167,0.6555662935507592,-0.8830490574781721,-1.2952531971696892,0.9957025956393653,1.1423759521117967,2,4,0.05403931454092068,0.06942139291562098,-0.0004957753161021992,-0.0008331069744810285,0.4382383588947804,0.473817813406071,4.323145163273654,5.553711433249679,15,25,5
0.5864615281287825,0.6857159783377321,0.594984565220127,0.698473493953455,-1.5912152200193361,-1.8045348902838718,0.5531391824760488,0.671034699921223,1,1,0.0659588062865332,0.07371719378960763,-0.0007521934482288219,-0.0007347005773397943,0.4151995699758061,0.49557573059029886,4.617116440057323,5.160203565272534,17,19,6
2.4148299567995726,2.570799710856108,2.420076173684619,2.5794773551633927,-3.9076727745433897,-3.038430327933495,3.741830253873874,5.571730470942632,1,1,0.0659128542418079,0.06407488634174302,-0.000572466057053056,-0.0011310661542466832,2.1229815215091885,2.1006231084608924,13.709873682296044,13.327576359082547,47,43,7
19.77653601199108,24.427728193651514,19.785588472978493,24.439683303445367,-28.827450545298483,-34.8611898021606,23.028138855069678,29.90211149368046,1,1,0.2658250649082428,0.3236888253746925,-0.01081250186818779,-0.013374433591860246,18.87790119887781,23.359264933534476,85.86149596536244,104.55149059602567,154,181,1
0.5191688713519487,0.5109013496347998,0.528966649980963,0.5129094949230181,-1.2147105154950868,-1.1336474054547194,0.8310700238637833,0.5053026260894197,3,3,0.06671089026765396,0.05597379315687961,-0.00047391869948079234,-0.0006591283061744142,0.4052861326856113,0.4132275563062086,5.003316770074047,4.1980344867659705,13,13,2
2.7164857145226606,2.5513301988776536,2.727503922262014,2.5602160576286623,-4.96794353562535,-4.502668413027248,4.576149155146014,4.149456771612449,1,1,0.09702648610782326,0.09128539509832131,-0.0018828720068987189,-0.0016092123487531844,2.4282085346543902,2.2823415745048585,17.076661554976894,16.06622953730455,52,58,3
2.2203602725633425,1.859031730525041,2.2951936241862114,1.9219312803845734,-4.673186366305432,-4.276201424099944,3.768008756192983,3.21314696341003,1,1,0.1995919114606532,0.1979675784480813,-0.0022651601813606166,-0.0020108471583880423,1.8669204951659046,1.4742055887156758,13.77184189078507,13.65976291291761,55,56,4
23.198135519619434,20.702085793666004,23.57536565908937,21.0317225000118,-30.696595145949022,-27.88320216681151,41.45189222663109,36.710897889709905,1,1,1.2394214702357866,1.1144624791276692,-0.01228193901642883,-0.010892088774601842,20.492773815315736,18.26137377235297,102.87198202957029,92.50038576759654,79,79,5
4.252010490586647,3.599327759268779,4.252893675375942,3.599839426972666,-15.099531771243795,-13.632585665768348,4.543404213465182,3.100057706032715,1,9,0.10475585024011062,0.0912889112133055,-0.006436682325624422,-0.005809771152715205,3.085987456155227,2.463929687659527,43.89270125060635,38.250053798375006,103,81,6
0.3983030971364243,0.8782773366355145,0.40427730806650225,0.8889636941430942,-0.5845293419944558,-1.0604177409304327,0.7164441821829439,1.1954134564665506,1,1,0.029319649782796373,0.054329861653577505,-0.000124199383312183,-0.00044948348246320787,0.3509827505918459,0.8190898704891119,2.0230558350129497,3.748760454096848,5,14,7
0.2192416958386489,0.49642934274064704,0.22045759399590872,0.4973285153846837,-0.19435167293939443,-1.089183772726852,0.7269859978035972,0.8524996177476662,2,4,0.0209784398090332,0.052435449814934275,-2.8411623633531443e-05,-5.276444389080376e-05,0.13607406035363256,0.3947106790957433,2.118822420712353,5.295980431308362,4,7,1
0.9023368588734616,0.9569605331729353,0.915220407862023,0.9718345467370503,-1.1660625482824738,-1.2852602836501663,1.5755979546003014,2.0202384840795644,1,1,0.06157337189918314,0.08144037080557046,0.00040824797292435657,0.0007819961171509107,0.8200769916303632,0.807044006516477,4.371709404842003,5.782266327195503,18,24,2
1.2256600641856752,1.1494612767129748,1.234121819603017,1.157574877702855,-1.5101603194365985,-1.2825126932038786,1.835582480394063,1.805318536940159,1,1,0.08129750242696611,0.07747178700009723,0.0002740549772616441,0.0007638553621548402,1.109136190274429,1.0468670676491463,5.690825169887628,5.423025090006806,20,17,3
1.1922797797557894,1.2125323375613821,1.2524208671741432,1.2786072115442408,-1.5063058407074685,-1.649204775040992,2.0358513471011688,2.110563777031266,1,1,0.09010727301046319,0.08828705041164554,0.00038999806354073167,0.0004319978549989853,1.099414392703681,1.129415828634281,6.127294564711497,6.003519427991897,25,29,4
0.7554258112399833,0.6582477876353141,0.787018423087842,0.6976352987132843,-1.5734302195959546,-1.477972041599533,1.3774318808550794,0.9126847474008394,1,1,0.07342686647240816,0.07038069774297259,0.0010439948162474812,0.0011459943097889207,0.6576794686793819,0.6078598806896924,4.993026920123755,4.785887446522136,18,21,5
1.7148781613519153,1.6545552934909014,1.7891801027550378,1.724192332729655,-3.422664413880341,-3.21408627635191,2.8107614117522175,2.7755384977757003,1,1,0.13319873557856615,0.1251962098206767,0.0013586129723822961,0.0014285844559384535,1.5123123050910625,1.4671435677763358,9.323911490499631,8.763734687447368,45,44,6
3.847957017817055,3.391779504908096,3.9394106679758787,3.4761815104203397,-7.424704759589219,-6.541122077999289,7.314579013830009,6.828305726440736,1,1,0.23968120648528082,0.23177972860550225,0.00319179060339961,0.0030048237898113307,3.2625153304617287,2.8122920448198827,22.050670996645835,21.323735031706207,79,78,7
0.7275904232867374,0.6754788792353713,0.7368518071919211,0.6843212949342248,-0.857030946230964,-0.7894003313915614,1.4756395739654469,1.4919485091246818,1,3,0.05801807526518817,0.06000090237029074,0.0004619977060405547,0.0005699971697902893,0.5795623949374583,0.5193410983027258,3.945229118032796,4.08006136117977,14,17,1
0.3609399735177457,0.4790006092524948,0.3717740357754489,0.48568276113525094,-1.0689499069054054,-0.8325214614201679,0.6163810027075488,0.9848042589139533,3,1,0.03336236914173964,0.032059097496948435,0.0003930889572844209,0.0004725431082248772,0.2825986336132617,0.387276512111561,3.2695121758904846,3.1417915547009465,0,4,2
0.5235657935288079,0.3652253014529838,0.5305006591664659,0.3656238489412909,-0.7716780886796203,-0.538389060851173,1.0122612623320577,0.669437524392736,1,3,0.052435475752541885,0.048684293035087665,0.0011290853028382067,0.0010036313803006255,0.4363764833420048,0.30639042817643447,3.4083059239152225,3.164479047280698,5,0,3
0.23767626776454515,0.30817225610382154,0.24542841507967267,0.3353210859777648,-0.33231735763785974,-0.4629263323738537,0.504160979678751,0.4882644626265878,5,1,0.04554164301170619,0.025865609459134856,0.00024149880088482898,0.00012419938331220651,0.1921476324017079,0.29524125175148647,2.6869569376906655,1.5260709580889564,5,0,4
0.25443864642965713,0.3007091663590137,0.2606243826255273,0.3040193948271281,-0.3721537949605641,-0.3717372353267223,0.5069971583263833,0.685722812196746,3,3,0.03512513565643558,0.03416933041651032,0.00017902613810768527,0.00026853920716151617,0.21054862578256345,0.23176036680278836,2.5641349029197973,2.494361120405253,2,0,5
0.2006413078457698,0.39941062334359745,0.21046037853954966,0.40730168331999844,-0.22267463212291833,-0.5248219631823663,0.4574478656783879,0.7019986649366294,1,1,0.02377616887395317,0.03868417364912217,6.369199144214572e-05,0.0001719683768938099,0.17302168691345898,0.3446982080499651,1.521674807933003,2.4757871135438188,0,3,6
0.3101834571777548,0.2666143160022937,0.31496547605327596,0.2772624060840983,-0.5114265734517623,-0.5115706789344838,0.5190660172825701,0.4774967316105413,1,4,0.028270983398669867,0.03661896427951459,0.00010016079299371417,-0.0006143195303614343,0.27273840199388627,0.23022297847298703,1.724529987318862,2.23375682105039,0,0,7
10.154339871532388,0.8599460607551046,10.162637560067447,0.8657232432036204,-28.836587465425694,-1.107782735481208,10.937778523724793,1.63054948253645,1,1,1.366081636984649,0.07362950989390193,-0.1111553585275223,0.0009206819956974048,7.191314778819789,0.7514934444139371,90.16138804098682,4.859547652997527,62,22,1
0.21943031259102264,0.2993025754949024,0.22245865557779174,0.2998920912376016,-0.2437758015077077,-0.5148632901747698,0.46492065590432635,0.44206557741533214,1,3,0.02376229178312185,0.027124330340888857,0.00025790035879037445,0.00017645814022499426,0.1876806208392868,0.2548073241529606,1.425737506987311,1.6274598204533315,0,0,2
0.20023909274138568,0.14041204848977945,0.20950559449855408,0.14386641906710568,-0.258880699658998,-0.23751621388262747,0.4549439792965712,0.2746672000875926,3,5,0.028424993380708478,0.030200110770073115,0.0004760976360300975,6.8999657395604905e-06,0.1654470113892715,0.11374785518386685,1.6770746094618,1.7818065354343138,0,0,3
0.20195675374355682,0.1716020980153594,0.20294277344214195,0.17823184744519152,-0.36398829884992395,-0.25350185760633714,0.432210682110787,0.39164959093309054,3,5,0.036493134054594624,0.034126377220341335,-0.00010683817919328884,0.00025374067558407275,0.15539580610382972,0.14613036473201493,2.226081177330272,2.0817090104408216,0,2,4
0.20655596979882984,0.25122859666438985,0.2214029769266871,0.25170977672133127,-0.45399160169818964,-0.39493211169258624,0.542958117708846,0.4406312877457415,3,1,0.032698137702653285,0.02558674115504715,6.89996573956755e-05,0.0001586992120100325,0.15712417953711263,0.2086570800934107,1.929190124456544,1.5096177281477818,0,0,5
0.1357283446458382,0.10596300689694138,0.1365447960698523,0.10938104461450095,-0.21945927234327137,-0.18640759864126039,0.29874012524730353,0.2331300411949989,3,6,0.020177693958094295,0.020399103876978266,0.000372598149936596,-0.000413997944374006,0.11310872454113458,0.08721933441383524,1.3922608831085064,1.4075381675115004,0,0,6
0.23272594341328956,0.25615621036693664,0.23495894145347418,0.25761671846839784,-0.29320162299811814,-0.3022957244703631,0.5558553727445088,0.5605580442425232,3,2,0.04129737869079842,0.027976547465585172,0.0003398490588144871,-5.5611664169645056e-05,0.19350523043951562,0.20770750897965107,2.725626993592696,1.8464521327286214,3,0,7
0.34173684015226347,0.30272226994146356,0.3458364745823715,0.31111862596405515,-0.6159905305335173,-0.4170845670685339,0.46528133657723325,0.5255484274703602,1,1,0.027747164750176495,0.02151372942034054,0.0001516048810383568,0.0002449001924465981,0.2946288342703978,0.2705972266090886,1.9423015325123547,1.5059610594238377,3,0,1
0.10168540677667957,0.133936793849093,0.1028189379533938,0.13477675282119772,-0.18801639206291892,-0.3237092215019292,0.21033410471013414,0.1757305338545116,4,5,0.02174659420002828,0.025209703647337517,-0.000413997944374006,0.00045052717475993807,0.08773848820243832,0.10928791180968708,1.4570218114018947,1.6890501443716137,0,0,2
1.5720733343347193,1.4594054714245064,1.5842555168920254,1.4697440398019384,-2.5998066770833956,-2.4324842835355462,2.0048855460925004,2.0074601076009317,1,1,0.12640722687276734,0.12662688934852706,0.0007961498930269274,0.0004967975332488025,1.4251003447522332,1.2985262076951691,8.09006251985711,8.104120918305732,30,29,3
0.3837370501000207,0.48922396052084294,0.38580205766540104,0.49028686397051807,-0.8412857358609723,-1.1110909440630663,0.7120105611851747,0.8982484626420321,3,8,0.02514148120395391,0.0317803960481817,4.491487132359854e-05,-1.3669743446304414e-05,0.30282874925688386,0.35799050186918024,5.304852534034275,6.705663566166338,0,6,4
0.12182176842813915,0.1681933484493143,0.1256858892229138,0.18875531025673964,-0.243408008070683,-0.1992789713849669,0.23282746957447129,0.4338609278154368,5,3,0.03235200120448427,0.025256195390631515,0.00045406226157150104,0.00048744919256939797,0.1053573480455711,0.13606455897480538,1.9734720734735403,1.5406279188285223,0,0,5
0.14692637438302292,0.15852960521538828,0.15009064127091393,0.15868909446919516,-0.1720840807795848,-0.28099558492346427,0.2812015240955995,0.2313638928891558,4,2,0.019524734043762634,0.01783015130804021,-0.00011227062898278687,-9.823680035994439e-05,0.12271367346474664,0.1296580050032146,1.1324345745382327,1.0341487758663321,0,0,6
0.13956125090048385,0.24637750685455634,0.14414403588827016,0.24717707779743048,-0.412057677506094,-0.43115568501566665,0.2015255151329686,0.4695757114022037,1,3,0.01683951776437604,0.03283829544651304,4.528102516590691e-05,0.00020053025430615917,0.11740186807313023,0.19553606917055175,1.0608896191556905,2.0688126131303215,0,0,7
0.07953461510358657,0.06275711329317385,0.08157882497374361,0.06482505660791006,-0.19375762853695003,-0.09401885733457299,0.2073865553487322,0.11845334733998346,5,4,0.019353262315033058,0.016778223004674492,0.00038593028712832105,-0.00043504868730828147,0.05680665797951123,0.05646742259947211,1.1224892142719174,0.9731369342711205,0,0,1
0.2435178097419324,0.20540410684340385,0.25464060863132787,0.21350427039673947,-0.44917885293082277,-0.4394966238951517,0.46973746682934736,0.37605398077887636,3,4,0.04795771159370743,0.022490473517126935,0.0005174974304675075,-0.0002690986638430945,0.21797162193756128,0.157778274328614,2.8295049840287385,1.3269379375104893,4,0,2
0.20525228511354696,0.1459808494249087,0.21220973979588925,0.1461575834921599,-0.27176132098073263,-0.24045842396587072,0.5058525887268266,0.2791593692567619,2,4,0.02635967688313196,0.020717705600706994,-1.3799931479144515e-05,-0.0001931990407078585,0.16657518913527963,0.11564415219247141,1.5552209361047855,1.2223446304417127,0,0,3
0.24418409707129787,0.35034643506437513,0.24845950613017584,0.3526508002737226,-0.325666830796031,-0.42668863102761195,0.4580113149132297,0.6096830907887733,1,1,0.02316196535993458,0.02835487773011345,0.0002634532373289086,0.00010663583415693809,0.2067364319915476,0.313011441929856,1.5055277483957477,1.8430670524573742,0,0,4
0.23187836883660976,0.18369654634796376,0.2328270049934975,0.18653803084674916,-0.532605358555837,-0.26719874421843454,0.404654609597453,0.41122734926324506,3,1,0.03588285190539954,0.024020932202238738,9.268610694939274e-05,9.886518074603303e-05,0.18660585307378025,0.15673167967177953,2.3682682257563696,1.5853815253477568,2,0,5
0.1874145666679668,0.16455799643936858,0.18782749731670917,0.1675453092014702,-0.34554466956452856,-0.23284114980395298,0.31611200884212753,0.4005275134883525,4,2,0.021791722372556742,0.02512563754829022,-0.000131099349051767,-8.969955461436875e-05,0.15056450935935592,0.12795351681611228,1.2857116199808478,1.482412615349123,0,0,6
0.4655489481827094,0.48206957545644236,0.4691492809201182,0.48946618567161687,-0.8953813140279084,-0.8570191901326115,0.728228899823527,0.6484164356823277,2,1,0.06281652341072749,0.03668045965920499,-0.00023287384371037837,0.0005627784556334144,0.38389385559248945,0.41654867914484994,3.957440974875832,2.3108689585299143,7,0,7
0.10478102510350908,0.07222581868904532,0.10614495027614178,0.07462458274385743,-0.18721929625363495,-0.12641233074082303,0.24007873494498627,0.16644168276505483,5,4,0.021779650079713643,0.01672235986373492,-6.786851547105208e-06,-6.7868515471169734e-06,0.08383373894512111,0.06305011802188384,1.3067790047828185,1.003341591824095,0,0,1
0.13844133969312578,0.1329913603728936,0.13912247226335653,0.1504515740082563,-0.33071926721207456,-0.26952047426384074,0.18276905241709454,0.2990319751253964,3,3,0.028489773387535024,0.030059187552764228,8.969955461435699e-05,0.00017249914348916524,0.11509238321198982,0.12557963293529895,1.6808966298645664,1.7734920656130895,0,0,2
0.2444743239170629,0.224506033708217,0.2464820857736771,0.22619526074633226,-0.3716995164216488,-0.4293720278289805,0.41898947371268347,0.4229173304130624,2,3,0.025384166910375816,0.03327205721665038,-7.465536701827495e-05,0.0002782609134317136,0.2066729715197689,0.17132985414621796,1.523050014622549,1.996323432999023,0,0,3
0.19539258137315435,0.08034271424797665,0.20913194712479058,0.08306242823363091,-0.3740317282470846,-0.1320044048508453,0.36943382716708395,0.15977778159550501,1,2,0.0229176464555235,0.01150502909138378,0.00013799931479133927,-2.628558376978395e-05,0.17029958346392904,0.06745123087384479,1.420894080242457,0.7133118036657944,0,0,4
0.15408489192146996,0.27488051470902736,0.1616250560529379,0.2758439446169468,-0.1643655937821976,-0.4224656825079768,0.3937094189092047,0.5296392563295452,2,3,0.021791724246315793,0.03692785457520059,-6.36919914421575e-05,0.0002802447623454859,0.1268136278511808,0.22073881017689656,1.3946703517642107,2.363382692812838,0,0,5
0.10538033477237638,0.17274006400099315,0.1072746401637348,0.1791155570751726,-0.29362136828443663,-0.3160014277055963,0.16442521941023297,0.38229062322535307,4,3,0.021014037106387995,0.02976943450476158,-0.00038061101337609737,0.00012687033779203638,0.08545640112737807,0.13715728768358837,1.2818562634896677,1.8159355047904564,0,0,6
0.16277581715246794,0.1701527186293637,0.16392864825461478,0.17327224182617693,-0.27372066035759224,-0.4051048196200173,0.2434587066934622,0.29647263849616246,2,6,0.028452371904190196,0.024529783966682178,0.00028979856106179947,-5.5199725916531e-05,0.14633713376345758,0.12675108230660478,1.6786899423472215,1.4472572540342485,0,0,7
0.37944082064555507,0.44254586184624456,0.38265762313917157,0.44368915444727697,-0.7968200179367323,-0.7352424932898703,0.6555555503708032,0.8181391137604194,3,5,0.04486941253792593,0.05674108753713399,0.00014511268153315917,0.00027315328288594117,0.30056098807784254,0.3689953016962699,4.3074636036408895,5.447144403564863,0,10,1
0.24061308514439544,0.3332755070319044,0.24281266926652467,0.3461202062945254,-0.4641181968919085,-0.7553688277050727,0.4682703432235486,0.6195017559011194,4,1,0.039071714444362124,0.03703604048215882,-5.429481237692403e-05,0.00014931073403652638,0.18666968262819944,0.2667451069065924,2.3443028666617276,2.222162428929529,3,0,2
0.20345417421622983,0.2787912109868671,0.20600315076825024,0.2788166478062767,-0.4316334361800934,-0.36822617676523006,0.27455847115955967,0.662636300568235,1,1,0.025584632122029896,0.03732258351627144,0.00029862146807305276,-0.00019003184331921647,0.16638700027721828,0.21222626876467798,1.5350779273217938,2.2393550109762863,0,8,3
0.19919540622816198,0.23559381730229237,0.20108676751536883,0.23559719438256715,-0.40543611518927153,-0.3954322070156269,0.3697233129713879,0.49868250665454983,5,3,0.03473796737371476,0.04316088342240608,0.0,0.00038114096466177903,0.15801748240280358,0.19240670869903667,2.1537539771703154,2.675974772189177,0,0,4
0.1384185005356602,0.365075731672891,0.14826292356723889,0.365088944093562,-0.2562612686150594,-0.5765261540877875,0.3147121477992171,0.6067695953028351,3,3,0.028999276480990505,0.04760843927482901,0.0003054083196201697,0.00026468721033747963,0.11710110937454604,0.3045879628938064,1.7399565888594304,2.8565063564897404,0,5,5
0.3269720415823676,0.11759312683808223,0.327157629418634,0.11909963800042439,-0.44894702523441554,-0.23407822119491076,0.582964448757794,0.23282424401591253,1,2,0.0352580256777356,0.01961261474243273,6.108166392402923e-05,4.072110928269008e-05,0.2808980012537684,0.09280080163474454,2.115481540664136,1.1767568845459637,0,0,6
0.20881855890184595,0.2806003034435238,0.22588538655000662,0.2807944748570188,-0.2985830685032209,-0.5097236220094451,0.5246251112137792,0.3920789889908549,3,3,0.03283820972234731,0.05183336974472716,0.00024149880088484077,0.00034499828697834225,0.1701044186597544,0.24123425778863666,1.937454373618491,3.0581688149389024,0,3,7
0.3092353619984486,0.21720183709890578,0.30967429979734407,0.22389406468108208,-0.6297020088428606,-0.3963130177703546,0.49745667323160325,0.4784342226840654,4,5,0.04721853577876031,0.04394120106577973,-1.799991062495576e-05,0.0004919975570821477,0.24962355389541083,0.17666534577922158,3.2108604329557013,2.9880016724730214,4,0,1
0.26430514471038313,0.2584290448050256,0.2681011476643239,0.2589130036994577,-0.30238113705441644,-0.354928679637092,0.6029492287347966,0.48951089302447176,3,3,0.040583907188119814,0.03460215299517362,0.000186299074968298,0.0002759986295826667,0.20230216999074171,0.2156350485249219,2.394450524099069,2.0415270267152437,0,0,2
0.2585762365593394,0.15891777220634332,0.2642445592456527,0.16138348528498697,-0.5245645174144771,-0.2366346294729956,0.46461855820980424,0.33195476495266985,3,4,0.03800265609797723,0.034366369898034696,2.75998629582655e-05,1.379993147913275e-05,0.20558666269148848,0.12941018193550397,2.242156709780657,2.027615823984047,0,0,3
0.5147218236514113,0.511416961637135,0.5166466796894286,0.5120736967657943,-0.9207745467007774,-0.7785761532168445,0.9221474897004427,1.1143609056839507,3,3,0.03488176458040121,0.03421096820224097,9.899950843725668e-05,0.0003914980560928054,0.45028159307290766,0.44504461062479866,6.383362918213421,6.260607181010097,4,5,4
0.15267306436886666,0.41498294544283554,0.15442145610445557,0.4157474714418594,-0.2687571722739514,-0.6027791455515757,0.3046444802780992,0.751885879983493,5,3,0.03239042918397828,0.03758975937575691,0.0003881230728506306,0.000743902556297042,0.12343834504375865,0.33115816685137794,2.0405970385906316,2.3681548406726853,0,0,5
0.16062466164207329,0.23686142306426916,0.1701574635775172,0.23713467269408262,-0.12575737019917274,-0.2982520028276124,0.3873516849298926,0.4877939179335724,3,2,0.019687766784499464,0.029582136573651805,6.786851547114622e-05,9.501592165960234e-05,0.12421265113937127,0.19977112324209242,1.1812660070699679,1.7749281944191082,0,0,6
0.21882001596561704,0.31135185963383344,0.2221749545003712,0.3116648610778947,-0.41588559133481884,-0.6375158129326014,0.33963948057787574,0.384028796220855,2,2,0.025247232946320433,0.03403880272848811,-0.00039396578577525847,0.00028045022038239496,0.18956281749884626,0.24894220464142333,1.5400812097255465,2.076366966437775,0,3,7
0.3755205069133714,0.25803603194878333,0.3769777339776623,0.26170101178432775,-0.5272437362121313,-0.5068736755824003,0.5809527141322733,0.4435604781921109,1,1,0.03694335445440741,0.03352143730577543,0.0002965120412408456,3.916196771104953e-05,0.34472140840248444,0.2178991980561645,2.696864875171741,2.4470649233216064,3,0,1
0.23761852391208912,0.25628990727933443,0.23859811222800217,0.2585073094360269,-0.501221992624452,-0.4741560407605598,0.2958737897316812,0.44720377938189193,3,3,0.03029100174814072,0.04176807117273059,-0.00044738487537191466,0.00036725624097693626,0.18806433140436787,0.21472094202885014,1.847751106636584,2.547852341536566,0,3,2
0.4129339676181972,0.15420527686786806,0.4529193573725173,0.15602664885165643,-0.9547764406345244,-0.2623527236418833,0.6627943857307657,0.29449657441327487,1,3,0.03754588043828179,0.023127303495593093,0.0006009647579622615,2.670954479832221e-05,0.37676338802375214,0.1289282230592062,2.290298706735189,1.4107655132311787,2,0,3
0.19907629796072124,0.5155684530202163,0.2040260916898482,0.5206903315411152,-0.45737268392651786,-0.7168587025096349,0.35052957607615814,0.9897984625923423,6,1,0.0366481452781863,0.044228494221121885,0.00020032158598741657,0.00027377283418280853,0.1515428825877824,0.4161235206247642,2.2355368619693645,2.697938147488435,2,5,4
0.24208662766228123,0.14158723893603806,0.2527778646102895,0.1416260644331802,-0.45802878379325146,-0.2509417062603643,0.46768229834795155,0.16910265835963112,2,3,0.023375256762421477,0.01868255343044807,-8.822907011249713e-05,0.00015609758558364335,0.2069883909844837,0.1233658442910972,1.4025154057452887,1.1209532058268843,0,0,5
0.24401455306984948,0.3168670663854881,0.24402270158065414,0.3180449122688715,-0.40644041599899894,-0.5348951950168209,0.45979466772140737,0.6904207015928259,2,3,0.029103178583164007,0.04953604418787315,-5.084185281786183e-05,-0.00010168370563572366,0.18446074558912864,0.2325937665434765,1.6297780006571845,2.7740184745208962,0,9,6
0.41283207676038636,0.14283417286651598,0.41368773009781046,0.14354420024546177,-0.7899549665796615,-0.27822374886528944,0.5694599090268483,0.22704072472614745,1,2,0.04807311823009961,0.016846197609633136,0.00023370851698532524,4.0064317197483314e-05,0.3551548844808896,0.12215387841319222,2.932460212036076,1.0276180541876212,6,0,7
0.16842270152413027,0.34522481986474796,0.17405707864512823,0.34550701196468464,-0.2110863235244137,-0.32972487532990946,0.3822543810781004,0.7023936688932232,6,1,0.025591439743122568,0.03362985647063164,-3.8812307285063064e-05,0.00029756102251881684,0.12472136990274972,0.29103040157410176,1.6122607038167218,2.118680957649793,0,4,1
0.31159677444888106,0.26701761046396155,0.31410651828459707,0.26724750553174903,-0.6705077251954072,-0.4996427048139086,0.5159409042351297,0.41268827742264014,3,3,0.02995917186499994,0.03246739378492667,0.00012290563973603303,-4.528102516590691e-05,0.23704498523933729,0.22134360693884925,1.8874278274949963,2.0454458084503804,0,4,2
0.155047780709666,0.30637684454044384,0.1619987333898699,0.3102291361078638,-0.3865096575938396,-0.5677899279813476,0.3343536741962897,0.3754076147256125,2,2,0.019836637066276832,0.027992189219802264,-0.00013799931479133927,0.0003219984011797798,0.12055695241394292,0.2664682755061697,1.2298714981091636,1.7355157316277403,0,0,3
0.16576113331190814,0.4160090413562531,0.17053046907385477,0.4191305088196845,-0.42046892845690403,-0.6966047916145277,0.24806487088083018,0.7505498281271936,2,1,0.018773258616443675,0.04735813738660903,-0.00034499828697834225,0.000262198698103534,0.13803629159889677,0.3550657868648003,1.107622258370177,2.794130105809933,0,5,4
0.24403479241187256,0.38316146922425387,0.24759090787798527,0.38327759604861533,-0.2978288594935397,-0.6736637361683497,0.6024485913002463,0.6416773094444648,5,3,0.03405793653958886,0.04842342022668326,1.2937435761687688e-05,0.00013584307549772073,0.1793765987555265,0.3057625412210367,2.145650001994098,3.050675474281045,0,4,5
0.22385244487043354,0.15778370638387437,0.22392086321217933,0.16705650350535553,-0.4497153416309032,-0.2885012030419827,0.3724450516196904,0.2502603503577903,2,3,0.03017476538034375,0.024884342518710387,8.680602059455306e-05,0.00036725624097693626,0.17357665017485036,0.14646619474529113,1.8406606882009686,1.5179448936413336,0,0,6
0.30490668526561776,0.1525815600171581,0.3148015667860173,0.15684656929413698,-0.5029310280337345,-0.2879865977220419,0.5860461547669921,0.33120063225625007,1,3,0.03709613540616555,0.024997661109485435,0.0003679981727768929,5.257116753955613e-05,0.2680655008642872,0.12129856800077567,2.299960395182264,1.549854988788097,0,0,7
0.14814232369669603,0.3955247467662777,0.14853782494223827,0.40521502171783685,-0.21508901838890757,-0.794305210301023,0.24899558929937066,0.6986580363059565,4,4,0.02391409736298276,0.03787686134502294,4.261743545026186e-05,-0.00013394051141511542,0.12968380603944016,0.3047845773223555,1.602244523319845,2.537749710116537,0,0,1
0.1850742456982061,0.11824248187109412,0.18509554158494562,0.11824330136350963,-0.35216576824064694,-0.2573980454682305,0.2854285881448107,0.21705605320806598,3,6,0.028977373457350554,0.024176953327187473,0.00016818666490193995,0.0001940615364253153,0.15771784076920273,0.090534333454034,1.8255745278130848,1.5231480596128109,0,0,2
0.2589406411203217,0.22630126069006157,0.2614934189078559,0.22819431310587043,-0.4617797768727328,-0.3148414376626263,0.4415775792990525,0.3843958110115816,2,2,0.021717312004745887,0.021566356455674333,-1.3142791884886093e-05,5.914256348199918e-05,0.21604849462884954,0.2014741532015104,1.346473344294245,1.3371141002518088,0,0,3
0.34694046816927265,0.08483536792758745,0.34918060979925974,0.08871021030262717,-0.47775676076738294,-0.15512148574669707,0.7552727293714318,0.19509300281941705,1,5,0.03736847252188242,0.015578481553224978,0.00029380499278155607,0.0003071597651807172,0.28035507066062315,0.06666952287983194,2.2794768238348277,0.9502873747467236,0,0,4
0.2681944074401372,0.5422992970429752,0.2808553476297516,0.5424844634270373,-0.4124331351638451,-0.9749490639620271,0.5954698493494748,0.6508769450648615,2,1,0.029437095008598903,0.05476680238821741,-0.0002806765724569554,0.0007858944028794728,0.22450989927098902,0.4749241667644999,1.7073515104987365,3.1764745385166098,0,7,5
0.22529948760410218,0.2633765726753846,0.2279316061301055,0.2678241332602177,-0.36099088684061786,-0.5045806881031821,0.4260769767484061,0.343875908791854,4,1,0.04621283526561118,0.029229825101202676,-2.714740618845613e-05,0.00012216332784807025,0.1903467599058136,0.23577958733232388,2.772770115936671,1.7537895060721604,1,4,6
0.2378801225437093,0.19486326380016175,0.25717852193619095,0.1954523759455779,-0.4448288397266743,-0.41718016641021793,0.3030083523654378,0.2496277679042827,1,3,0.01787023963212549,0.027572145696209298,2.036055464133916e-05,-6.108166392402923e-05,0.22436429560798726,0.1562675391826943,1.0722143779275295,1.6543287417725578,0,0,7
0.1994151329579527,0.24437047761241087,0.21509723634790165,0.24828653974983933,-0.5593200582503463,-0.2267229843061433,0.3556652954291291,0.5851373801155306,4,3,0.023480201703339705,0.026216068213040965,-0.00012176410128646752,0.00015220512660809321,0.16552442102097079,0.1883717705345486,1.5731735141237602,1.7564765702737446,0,0,1
0.136154080093485,0.1898870988024092,0.13621011119351997,0.19080810183121516,-0.24666960878300506,-0.3442123931447781,0.2750493879914907,0.3556028469896948,3,3,0.026809427516267862,0.03472223675132996,-0.00042067533057359245,0.0003472240823782005,0.1124834211513974,0.15833168310028428,1.6353750784923395,2.1180564418311274,0,2,2
0.3371169006374461,0.17641849150674707,0.33711964017772317,0.1764556903748335,-0.5069538227997573,-0.2934088151886884,0.7243139382725259,0.33475287344804955,3,4,0.04544043541318497,0.029154208136524317,0.0002876934867683767,-2.8067657245696717e-05,0.2527879985860441,0.13851797677810543,2.635545253964728,1.6909440719184103,8,0,3
0.24551201841142956,0.30343365890506446,0.24620834022215243,0.31010712500904286,-0.4872855448814581,-0.4034282852059419,0.32690340647522886,0.6204023469096457,2,1,0.02496011415648719,0.028505772958644218,0.00039396578577525847,0.000413997944374006,0.19537158609157573,0.2597190159810554,1.5225669635457186,1.7388521504772974,0,0,4
0.5002981018677842,0.47825773273885097,0.5118779612182073,0.4796764365475922,-0.8455994836253744,-0.7390168513344165,0.7686991185606967,0.9688195794477561,1,3,0.05941008667820998,0.05774815251865007,0.0006242826145322305,0.00038114096466177903,0.44285251215690763,0.3667557285013485,3.683425374049019,3.5803854561563044,14,9,5
0.22591121679031528,0.2336127600826328,0.22593545403347887,0.2393666085804256,-0.45144839031725525,-0.35108333992966206,0.4475193789689093,0.38168524905385903,4,4,0.035909450336918614,0.04450836477321266,-8.409333245096997e-05,0.00014878051125940842,0.1689036304721641,0.2107859696725362,2.2622953712258727,2.804026980712398,0,2,6
0.20656520286173882,0.2647671016555175,0.20858375704248464,0.26532406911750084,-0.3694422935907453,-0.5177962393389076,0.35526364049989406,0.41973630613932106,2,1,0.027220697712312416,0.03209710625798793,0.00043469784159271105,0.0002759986295826667,0.1692212431920005,0.20740479514343865,1.6060211650264324,1.893729269221288,0,0,7
0.22901586331423696,0.353326968104104,0.23593620883430383,0.356284722412062,-0.36843036407462354,-0.3235316356188609,0.5475054276432102,0.7699112101616331,4,2,0.04983258623842118,0.045613268364823586,-0.0001279630009883304,-0.00012043576563608262,0.18209620802855278,0.2836073229822848,2.6909596568747434,2.4631164917004735,3,5,1
0.5195321063867302,0.05191045733610507,0.5213338836755343,0.05191698786723305,-1.3579654327023924,-0.2167774634817657,0.6831236736527874,0.05740916225910924,3,4,0.03869095990963468,0.005382234158769258,-0.0005227857253773963,6.043765611298156e-06,0.4016172173123588,0.02817474887646864,5.261970547710316,0.7319838455926191,13,0,2
0.41071959879114367,0.4046030521677033,0.41250180836957767,0.4049261077452709,-0.4037324251870616,-0.8927249062877167,0.808405765384219,0.6891868051546722,2,3,0.0389302023671186,0.04612489534153305,-0.00013011363966039112,-0.00037851240628480415,0.3418551040964189,0.29671426444439464,2.6861839633311835,3.1826177785657803,9,8,3
0.5593167657754601,0.3449051571804461,0.5615634269696261,0.34714296831810876,-1.3620262605227091,-0.361241249630555,0.6175619309673703,0.9070000469402159,1,2,0.06197344156223572,0.0413510896520546,-0.0006530671798575949,-0.0004023360304479876,0.4193080635473512,0.24504472323678694,4.3381409093565,2.894576275643822,17,10,4
0.37857076459191663,0.45870635564214934,0.3795049980107054,0.4616622192821346,-0.8475476405146479,-0.6682642584654274,0.3054883800882216,0.6721422058464296,1,1,0.029542189916868893,0.03372180434833161,-0.00031758746417731066,-0.00018147855095846323,0.31155832775584047,0.42091101029892386,2.1270376740145602,2.4279699130798758,4,5,5
0.0337318392962069,0.03396222489615137,0.03379174725650146,0.03399580182148223,-0.10235640884337563,-0.10092882531652284,0.03568084409066409,0.03521134419679428,2,2,0.003845061869834923,0.004481510057197985,5.749971449649431e-06,5.749971449649431e-06,0.022630038545733446,0.022924268879765876,0.27299939275827956,0.31818721406105693,0,0,6
0.41717150923186125,0.5954937225456747,0.41760961794825313,0.6015680962659099,-0.4853033895407844,-1.2077692089036978,0.7448449737362954,0.7126827443182202,2,1,0.04172129544989439,0.054490837259321266,-0.0001582933316724113,-0.000590555891239395,0.35937899899966724,0.5242779552763079,2.795326795142924,3.6508860963745247,8,16,7
5.736463831961702,5.347570936435316,5.737675538768446,5.349018532846443,-11.179320288687851,-7.942410112262466,11.288552732878554,11.716521311017114,1,1,0.051268770720218446,0.05086325100672423,-0.004089491889548108,-0.003028721803578258,4.939062615892094,4.559811168049343,39.88710362032995,39.57160928323145,58,77,1
0.2664185444753604,0.35564234541173856,0.26834011504222105,0.3604524542030441,-0.49278548611991,-0.882514300018416,0.6216164001829713,0.6441232623577592,3,5,0.04738649593689503,0.055068136197638506,-0.00028423739464484204,-6.179073796626183e-05,0.21565221789594435,0.2617966954766361,3.127508731835072,3.634496989044141,10,9,2
0.9219116419260158,0.7905275522529708,0.924091033963731,0.7928289196627502,-2.2484080040853587,-1.6062729824449444,1.440798660975421,1.0272595970636778,3,1,0.07282897246078403,0.04595914382573416,-0.0011384943470285165,-0.0005642391338645773,0.7127417578843551,0.7075359704882198,8.957963612676435,5.652974690565302,38,19,3
0.7942213331924524,0.8131371537928506,0.7989367264520908,0.8159061185080003,-2.0397592922039234,-2.0002423296472007,0.7404925774073028,0.8704795808218772,1,3,0.08972104489940669,0.10019413270684088,-0.0006763910077096552,-0.0006530671798575949,0.5959864754329504,0.6175137115879917,6.280473142958468,7.013589289478862,20,26,4
0.5788871808884173,0.6341079740871346,0.5917771535982596,0.6476484058310782,-1.3183099180033293,-1.4770628864968829,0.9335047729130274,0.7582783147139872,1,1,0.060552120344133264,0.06299834797007249,-0.0008827897343269218,-0.0006636143520112826,0.4557084155238742,0.5317354722143023,4.056992063056929,4.2208893139948565,14,16,5
0.6045238397906403,0.6987265922099793,0.6127687263055089,0.709058813740919,-1.0899976932508628,-1.3104197379904787,1.0100402361477974,1.0830781421252726,3,1,0.05963039110203593,0.05716351706573402,-0.000908495489042963,-0.0007589962313523364,0.48849091182447424,0.5834353130613071,4.233757768244551,4.058609711667115,14,15,6
0.44637868181002505,0.8996294654034178,0.4494516068602346,0.916168741017426,-0.7714081424005322,-1.712544598664325,0.6894862995345369,1.2891943648475688,2,1,0.06547021746281502,0.07083311851013276,-0.0005404973162660582,-0.0007014965168559599,0.39226892574425715,0.7972173441836754,4.648385439859866,5.029151414219426,14,22,7
1.2474767023170508,1.1634377111526784,1.2565590607782944,1.174999695725183,-2.4276828811479545,-1.53866430207539,1.2642155345352315,1.5405915627500375,1,1,0.10627972977822744,0.0786523439299511,-0.0013569932621147948,-0.0007129964597552352,1.0676448988588996,1.0845715276964338,7.545860814254149,5.584316419026528,25,20,1
0.34149010417149867,0.5106226617873921,0.34937444421516567,0.5200890788946658,-0.8966551093433818,-1.3588074724064336,0.7137686621594418,0.8448078141531514,4,4,0.05410605625251636,0.06266464119524086,3.2684048240048153e-05,8.171012060014391e-05,0.24003210886044501,0.3688420042410775,4.057954218938727,4.699848089643065,13,15,2
0.732139816076478,0.29625839298197976,0.7365131544275529,0.2969798271963417,-1.5926236350771807,-0.6494181972521473,0.9193878559894738,0.539434372273592,3,6,0.09166165610755406,0.05023302996147556,-0.0006805445660942606,-0.00014178011793631118,0.5940130659055262,0.2207097341923353,6.599639239743892,3.61677815722624,31,12,3
0.950912431080704,0.9915091626878827,0.958777561260316,1.0003403413078074,-2.4759482150625205,-2.520553172449324,1.1534764900562289,1.1905699801765008,3,3,0.10444922027003783,0.10050400916522624,-0.0011614942328270672,-0.0009027455175933135,0.6864599448241897,0.7199333287180454,7.415894639172686,7.135784650731063,23,20,4
1.1160018376594891,1.2350419551881082,1.1376360672593753,1.263058329599446,-2.2359783848364185,-2.4073121108608024,1.4983554164786337,1.6942283903462845,1,1,0.10407453108441261,0.10905082132591877,-0.0012353164469224433,-0.0011551878125274767,0.9335548538573313,1.0451504909305653,6.348546396149169,6.652100100881045,30,28,5
0.6907191908473457,0.7914514502612496,0.7123796930667939,0.8077079978813472,-1.390824957055877,-1.2106396035198927,1.2843285331842789,1.2899678091298623,1,1,0.07664268553572506,0.05875182150838375,-0.001075158840613083,-0.0009886518074603068,0.6043000043954222,0.6957842394757344,5.058417245357854,3.8776202195533274,20,11,6
0.7305656237923428,1.5535798723102454,0.752502428852469,1.5838926555270374,-1.5414934586797508,-2.9208006835007314,1.2468115417172558,2.102050867911617,3,1,0.11830844725348297,0.1274263638854513,-0.0010479322966967027,-0.0013972430622622703,0.6212322094313796,1.3150479937770576,7.453432176969427,8.027860924783432,39,35,7
1.8688967799221328,1.5463216587870998,1.9237103860451703,1.601847821563497,-4.0411694029529555,-2.513539152935389,2.729442337127579,2.6838297666091355,1,1,0.17299001467682734,0.12367456354487746,-0.002147614336440156,-0.001662460495376868,1.5101650263785675,1.3841799215988093,10.898370924640123,7.79149750332728,42,30,1
2.696742017369274,2.53997359505444,2.841756019184111,2.667598927451697,-5.033233039681115,-4.029014223473602,5.498121886390465,5.011456756844197,1,1,0.22885808789507345,0.1921682237345642,-0.0022379888877029504,-0.0020459898410367557,2.358177228379966,2.30071213924596,15.562349976864994,13.067439213950365,54,53,2
16.653817622442837,14.200395530350834,16.80854234372333,14.330700163034626,-30.300342655099016,-25.288303531449284,19.491134351480618,16.754083479923384,1,1,1.0677067360527448,0.8975888529130128,-0.013814457722795772,-0.011526574345992071,14.789978567335305,12.723044472030445,80.07800520395585,67.31916396847596,74,74,3
1.999657673795526,2.1739548253682726,2.0444463915349913,2.218597154144096,-4.608171395186321,-4.658944562323693,2.937206946662883,3.3180458186170654,3,1,0.20950578642822426,0.21528920101949275,-0.0017530225457086817,-0.0019147404927297776,1.4853598942160025,1.714824421407862,13.198864544978129,13.563219664228043,43,49,4
3.5458298234912826,4.00030932422296,3.685925522658034,4.172994753600619,-6.752273200228023,-7.455983000299078,6.307482062759496,7.388138917336463,1,1,0.3047542129503195,0.3430295136661871,-0.00300462144477498,-0.0031865296324544907,3.0701869944521003,3.4701977655787015,19.809023841770767,22.296918388302164,56,59,5
10.812062319746154,13.656559176874982,10.851084390227712,13.70899551023965,-26.28485518267968,-33.00651424254173,9.445171136783303,12.231746697370896,1,1,0.7589001325603301,0.9666508528384149,-0.012255336738878728,-0.01502363624643984,8.389150355632069,10.560818679872172,62.229810869947066,79.26536993275002,59,69,6
0.29619934244851087,1.0777634660339086,0.3114313206320808,1.1021292042225965,-0.7456947652591024,-1.8938605390609549,0.30009216443984016,1.5341159139546592,3,1,0.04851704021726391,0.07289214359028705,-0.00043637621163746963,-0.0007105099856148634,0.24172411850693518,0.9529070346057311,3.5417439358602656,5.321126482090954,7,22,7
0.7545067624619913,0.9728510308398044,0.7678208908628947,0.9900032208739951,-1.1263753904280605,-1.5005436156195617,1.1444680945863626,1.3940951900842102,1,1,0.08014988312047129,0.07698354330386503,-0.0008398244014444283,-0.0007097107617839902,0.6972522780486372,0.8866670578202042,5.530341935312519,5.311864487966687,21,22,1
0.5481501949264693,0.7092379072084093,0.5525918814941486,0.7179629853939739,-1.73875093493854,-1.3771776555035191,1.0155087942030623,1.6818513756912712,5,5,0.06999992235957295,0.06543078762305864,-0.00023535499577427465,-8.223246840303601e-05,0.41525126455351263,0.5953389694281673,10.149988742138078,9.487464205343503,36,31,2
0.7789035860296836,0.48000032655043057,0.7798202126703054,0.4804356028429053,-1.424773088108963,-0.9455158162055411,1.4496972335551583,0.9406079045755114,2,4,0.10210082692040706,0.07407761562437691,-6.8999657395604905e-06,-8.279958887482003e-05,0.6216172566551571,0.35874611451392563,6.023948788304017,4.370579321838238,26,20,3
1.4637493106215453,1.3407868975451458,1.4637640786593404,1.3417808531698578,-2.3503689425343053,-2.107799210464761,2.715835746564007,2.7282567337669774,3,4,0.15954956717988283,0.1529666350459587,-0.001184494118625618,-0.0008222459172983626,1.1650558918781262,1.0208082493886954,11.328019269771682,10.860631088263068,44,44,4
0.9738407798333282,0.8760954000739747,0.9756346069843599,0.8783638843816309,-2.2963762440292337,-2.0515902713144674,1.14971081880715,0.8870798416515507,1,1,0.11816822350011486,0.10224396110139,-0.0007309651205353544,-0.0005174974304675075,0.7700861407019088,0.702520548199671,7.444598080507236,6.44136954938757,31,24,5
0.43454598052451926,0.2562657651644433,0.43742398547231365,0.2580199640157053,-0.6650555099876965,-0.4428431306460244,1.0031386211423063,0.6079740649937786,5,5,0.07470702225243205,0.05537494330236459,0.00012937435761687687,0.00029756102251881684,0.3291250273376888,0.1983844563982739,4.706542401903219,3.488621428048969,17,9,6
1.2548871823410441,0.8128250140257308,1.268213557064947,0.8267860091055141,-2.2067812986013853,-1.5123760629117726,1.9207401979458478,1.457339572904412,1,1,0.09006531050735149,0.07286724903508517,0.0005831583947633721,0.0005787068039636558,1.1140112593860476,0.7008069237713125,8.286008566676337,6.703786911227835,25,24,7
0.6641393450623708,0.6684346135089546,0.6642110702589515,0.6685547027694477,-1.5363458565876258,-1.695198171141863,1.2533653567152776,1.1705903599191587,3,4,0.13119688249910505,0.12791160859562403,0.00022581706056764607,0.00030108941409019474,0.5189539336623642,0.4997826711307489,8.527797362441829,8.314254558715563,30,31,1
2.0103377108492473,2.1943107173695813,2.010728275146642,2.194601929357837,-4.29256680646738,-4.020316141023383,4.610509496434186,4.942811846774754,11,11,0.1595193484922369,0.15624223898836995,0.0012680496478029012,0.001082763854516642,1.6985965619984569,1.9028650139151673,113.89681482345713,111.55695863769614,516,508,2
0.532652421693471,1.1373245535949286,0.5349819581048183,1.1394991630381555,-0.7881238053754971,-1.515015872741162,1.2187801074493452,2.0608292581401035,9,1,0.13570901422361914,0.1485148093935397,4.704522095154881e-06,-0.0005127929083723527,0.4405827746846724,0.9840687217053354,11.806684237454865,12.920788417237953,51,53,3
0.4571643262641189,0.6743521680441806,0.45735942373123584,0.6753038316845483,-1.0456039583586618,-1.191143324848524,0.8239535035566258,1.5001281621410467,9,5,0.12981236728906526,0.13042310513466987,0.0007284267628859022,0.001226272392196428,0.36868377621548326,0.5327942017480926,10.125364648547091,10.17300220050425,50,49,4
0.6632975126747291,0.8968695709493325,0.6633329644736458,0.8971965589407886,-1.6277959480256063,-1.810945832452764,1.2789002640398328,2.3419564271718083,23,19,0.14995714625572162,0.14968525045742131,0.0012682548967576804,0.0013547619299104565,0.5406444346799366,0.7149010199651341,40.03855805027767,39.965961872131494,185,185,5
0.5400752433190772,0.46222058477227873,0.5411942224833275,0.4656238643972448,-0.9278426266077662,-0.9196644363949377,1.4280030500035878,0.9297168549989963,8,7,0.1380623970422695,0.12514192503538468,0.00013593962352580427,-1.2358147593257073e-05,0.40180517149489603,0.36254366865929016,9.112118204789788,8.259367052335389,38,41,6
0.576825932774803,0.48175126898122533,0.5782826902041001,0.4853879926963051,-0.9964382475866317,-1.0513072434122532,1.2267484352579907,0.9304007849912398,7,7,0.14582444215548584,0.12269848876954186,-6.369199144216925e-06,-0.0003248291563549926,0.456932996395674,0.36975502575294644,9.332764297951094,7.852703281250679,41,39,7
0.4366516093309766,0.4857883497560511,0.4438206570331219,0.49565466159241023,-0.7053725610818011,-0.767062275598646,0.937412146290018,1.215792318542544,7,7,0.12377294034784489,0.12448170298558042,0.000228625730475197,0.00032749091122123003,0.36092880773963826,0.38068507709791594,8.169014062957762,8.215792397048308,40,43,1
0.4189784586336802,0.514752879136196,0.4348873134386014,0.5240571967767776,-0.6492383691254883,-0.9516314786525483,0.864021900796436,1.2456476860328543,7,7,0.1326017389190368,0.13272713683305765,0.0005095359315372363,0.00029298316063390795,0.35966389939046445,0.40378052709968376,8.486511290818354,8.49453675731569,40,43,2
0.5055007637168382,0.5684510757624995,0.52079320500797,0.5698607690105432,-0.8423644463252244,-1.1352161965687275,1.2296749652719696,1.3412852287709136,7,7,0.14492582121458056,0.14117807673442412,0.0007097107617840136,0.001169708477755121,0.4120054293076436,0.4270690377677095,8.985400915303995,8.753040757534295,40,41,3
0.4306692843188778,0.5687961224090129,0.43174554372491086,0.5690211367699324,-0.7516931442460578,-0.9510820083113791,0.8392617341608648,1.3183897010691852,7,7,0.136812649350608,0.13466913624581356,0.0013247934219968146,0.001407593010871611,0.36681297915790884,0.43916803554274925,8.756009558438912,8.618824719732068,42,43,4
0.32169279112270294,0.39761452614396936,0.32811578001413555,0.3993467343324547,-0.5762091476708638,-0.6586954182960653,0.6086341867111865,0.9421438766012853,7,7,0.10756546007748545,0.129934838803866,0.0012086069021241212,0.0008814149783446564,0.28003252262134004,0.33022263092050574,6.561493064726612,7.926025167035826,33,37,5
0.46661309054160427,0.43389628085869153,0.46746188502313335,0.4340219349916297,-0.8110475857129562,-0.991082498697639,1.0467515956664806,0.7791910273826048,7,7,0.1335061070500122,0.13063749868097047,0.0004967975332488025,0.0014330698074484787,0.3801690871625628,0.3634741021927553,8.544390851200781,8.36079991558211,38,42,6
0.3680020415155509,0.47102233222970546,0.37147931240099125,0.47498623069129214,-0.7321468049113365,-0.7264937875392252,0.7347672177161586,1.1518385264674778,7,7,0.11272909910757588,0.13303313815259513,0.00034284204768472373,0.0008409333245096998,0.30108997334892307,0.37603671599200134,7.10193324377728,8.381087703613494,36,39,7
2.5071433580518763,2.428974198335929,2.5682684865579617,2.4859347116394708,-3.995711204760092,-3.9475531977668377,4.35425433138327,4.098685846666834,1,1,0.19542328760277106,0.18682096907330636,0.0017061733465110562,0.0015619013355928381,2.2318341262834096,2.15337741607294,12.70251369418012,12.143362989764913,54,55,1
1.558591330369476,1.5690385855439422,1.5638490822142037,1.5779297457801331,-2.337110426937588,-2.7172919199012697,3.3041113209795556,3.60313023326328,1,1,0.06984517127864835,0.07444451206904998,0.0014202048687797036,0.0017245344835182086,1.2673536620362023,1.2738859757005236,10.476775691797252,11.166676810357497,30,31,2
0.6202383245897475,0.4313272638110885,0.6279549584782711,0.4540314412466079,-0.619900237474294,-1.24065491699394,1.2684660998730208,0.6273699422558767,1,2,0.04275211956003272,0.04318059590518344,0.0006445790779494,0.0,0.5272728812682083,0.3670795267861416,3.3346653256825523,3.3680864806043083,6,4,3
0.40597942515701985,0.4018164419950561,0.4068005145122111,0.41401523739775364,-0.7713876631867366,-0.488661280822482,0.5921289583662354,0.9276852768321479,1,1,0.04114481997534834,0.04990085845185621,0.00013584307549772073,0.0001940615364253153,0.3253029770793505,0.30872859935348945,2.592123658446946,3.143754082466941,3,4,4
0.39977746014869847,0.3540402767069185,0.4049980542466103,0.3569562269344363,-0.7617970449737922,-0.5242919953719621,0.5991560830691012,0.6088954949168444,1,3,0.041593265107037924,0.039403617888141534,0.00010514233507911226,0.0003154270052373368,0.3354782768735837,0.28698399868027397,2.5787824366363514,2.443024309064775,0,3,5
2.691508880238304,2.4987712829055875,3.401095692142022,3.1863946407723827,-3.9019820928173115,-3.624113817230719,9.789589720114304,9.189576090838067,1,1,0.30550662423887454,0.2631150382228866,-0.0012290563973603303,-0.0020958645933934054,2.987458665598335,2.8289445061327627,19.246917327049097,16.57624740804186,34,23,6
3.663096355187751,3.660805913973775,3.7583002530507605,3.7567952301515404,-6.219866403833447,-5.704021690398841,5.963853698750536,6.191948602100114,1,1,0.29744056605540903,0.29744189592434533,0.003699271954567732,0.003545692071977373,3.0895064233647704,3.121964936297899,18.14387452937995,18.143955651385067,51,45,7
0.7035182831417822,0.5352304161589396,0.7041205365637475,0.5354215314011608,-1.5945726081270384,-0.8255128876835014,1.0738373186221608,0.8408346704003957,1,1,0.07285441681987002,0.0627690716477651,0.0021023333112742495,0.0019988338251807477,0.5255118614969049,0.4713685489914178,4.589828259651812,3.954451513809201,20,13,1
0.5894963127306816,0.6444703544486127,0.6108352903594266,0.684859572926668,-1.148915124693899,-1.0574663087913996,1.0367568291262335,1.3179452046874787,5,4,0.09217507224746119,0.1199957218794379,-0.000206998972187003,8.409333245096997e-05,0.47535829828439247,0.5686688194245741,5.8070295515900545,7.559730478404587,28,27,2
1.6015395518127926,1.4242247684779419,1.6461386874001296,1.4584045425328838,-2.179992002456051,-2.4280336202602992,2.3597826389725056,2.210644889761192,1,1,0.1105718678829263,0.10870956195025591,0.0008668081960330751,0.000620996916561009,1.4920457646669367,1.2583991034459188,6.966027676624357,6.848702402866122,27,37,3
0.6941554937985571,0.5733927267588053,0.69932627994919,0.5837194444472557,-0.9712758339825297,-0.7823765686767168,1.2611455054707894,1.2059510909155993,1,1,0.058509770367621255,0.0680040700030282,0.0006533405059652282,0.0007180276847736667,0.560856918050822,0.49060711345221564,3.686115533160139,4.2842564101907765,12,15,4
0.4426236487869943,0.2630493472775261,0.44280692684664597,0.274959552435154,-0.8661279434787396,-0.47927429172546016,0.6838231544971577,0.47187891037856633,3,4,0.052774606858292376,0.04254590322639369,0.0005732279229793938,-0.0005159051306814533,0.3521032769874477,0.2301517297662283,3.377574838930712,2.7229378064891963,4,2,5
3.0363891434304757,2.87295210154999,3.13920561865794,2.989670402411547,-3.0932354482065443,-3.183153726111353,6.976170800369054,6.83619257511216,1,1,0.21249268140965533,0.19973105088089727,-0.0010586518863278183,-0.0008339101450962143,2.6852588452038972,2.568807306754046,14.661995017266218,13.781442510781911,31,33,6
0.8607069019961291,0.7557562602479944,0.8694293229905707,0.7709412340690995,-1.2273082162530906,-0.6587774146812169,1.8540443220293041,1.9057016048420836,4,2,0.12654489781192244,0.08789887607135356,-0.0001630900992988496,-0.0004014525521202479,0.6622574873752821,0.5556013703648424,8.225418357774958,5.713426944637981,37,23,7
0.23171354473451206,0.33200649347496264,0.2340813710760693,0.34367368850022134,-0.35097737141370144,-0.3555255466227626,0.5075561470453221,0.865615790116245,5,1,0.044841264157450496,0.04253127036184073,0.00037138050892373826,0.0005662030709820993,0.18974135502038772,0.2354818870541393,3.004364698549183,2.849595114243329,1,3,1
0.42189543574900623,0.4479926457082153,0.44098327034471707,0.4706793623254293,-0.6707322436906239,-0.8024474257291639,0.7177843167470193,0.8672484747442333,1,1,0.038582654891705245,0.046722752586730525,0.0003945917907314745,0.0005627784556334144,0.3998897569144948,0.404428219910343,2.4307072581774305,2.943533412964023,5,3,2
1.7308326839948436,1.5670477596267576,1.7313582832607288,1.5680656762713818,-1.2511157455464712,-1.107121056199044,5.009144511515095,4.637962839460095,2,1,0.1441713127801662,0.15600685522034147,1.3142791884891975e-05,-3.285697971222111e-05,1.1527839247338079,1.0177141159093135,8.938621392370305,9.672425023661171,12,18,3
1.1839666746294513,1.2683258979683394,1.1919143884901322,1.2798111604807063,-1.729303299047932,-1.4272679068984893,2.7107588343357962,3.2515709494893854,2,2,0.1926201114176967,0.17457623912394912,-0.0003121951711672808,-0.0010723225444441466,0.9380989201121238,1.0002626665439538,11.557206685061802,10.474574347436947,39,30,4
2.5633213612981742,2.532098931298467,2.5641109910237185,2.532565410116202,-3.421028000766408,-3.431761712032624,5.5076177400125665,5.554889541290283,2,2,0.32149043906065555,0.32969799031630226,-0.0011061507576242973,-0.0009897138357691081,2.0614534442065073,2.017138939642769,20.2538976608213,20.770973389927043,51,52,5
0.7813494553119488,0.7135988018600322,0.7876825519672156,0.7198104158528577,-1.2135591222305948,-1.1290814129340097,1.3396231624047947,0.9723086335918776,1,1,0.07453212925386349,0.06437134011568905,0.001698609212946292,0.0013759343445371394,0.6956495413129173,0.6533714412372309,4.993652660008854,4.312879787751166,22,14,6
0.4198313649826906,0.3066223492732291,0.4209384313810002,0.3135933780644488,-0.6160039611845287,-0.3685196674687762,0.7495428151399676,0.7050848529068473,1,3,0.05212905639499178,0.050106572559105514,0.0005973398911682059,0.0003666838935884055,0.3664151702035161,0.25650562809942284,3.596904891254433,3.4573535065782806,4,10,7
0.3538206579188052,0.26036333959950586,0.35674674924219313,0.2644456890429295,-0.7664739478341633,-0.35253739191373556,0.5556273779327545,0.6606707272757653,3,3,0.05011321860238148,0.03283866850357761,0.0001061533190702605,0.0002866139614896969,0.28726531902881486,0.20218232991924984,3.8587178323833737,2.528577474775476,8,0,1
0.2545615460192514,0.27357363024423015,0.27680782319818453,0.282981623933935,-0.610979754708548,-0.45733451415307835,0.5369773395671487,0.49746511464356397,3,3,0.04553551669183625,0.0416190700438998,4.674170339706387e-05,0.00018696681358826135,0.2151150328962261,0.24420797339060435,2.7776665182020115,2.5387632726778877,6,1,2
0.11818932522220324,0.37194591775212105,0.11883013325900126,0.37542454379955087,-0.2985676700309472,-0.6837385025372291,0.2132683041918659,0.5997068469812331,2,3,0.018935701777056717,0.043744359958625495,0.000427140736258898,-0.00011171373102155531,0.0885508059918942,0.30131812311809325,1.1740135101775164,2.7121503174347805,0,4,3
0.26593090564958444,0.27075367527444605,0.27325533081164427,0.2814558792129739,-0.48605554765235337,-0.5240489373961512,0.7458512316153093,0.6306684275863125,5,4,0.04999543584435234,0.058500149995575894,0.00020032158598742245,-0.0003271919237794588,0.18137272445196842,0.21947821929435807,3.049721586505493,3.5685091497301293,13,13,4
0.10878731456780114,0.1152209098326464,0.10910384160350664,0.1152409541933184,-0.22927424398581225,-0.21834476566296399,0.21506839666566058,0.21646363669947097,4,5,0.02216195337465047,0.025876115341713118,0.0,1.9406153642531532e-05,0.08428928409063968,0.09351602010994547,1.3962030626029795,1.6301952665279265,0,0,5
0.4198199609661846,0.3103625048581715,0.4237211283146469,0.31611924904347577,-0.7035997275803574,-0.35817355256338484,0.9655577065429766,0.7111052407726167,3,3,0.057627401867263776,0.05184122055998252,0.0005746538630863067,0.00024098387806845408,0.33558337017077633,0.2597110278263134,3.8034085232394093,3.4215205569588463,13,10,6
0.3309503649162659,0.35352033468703714,0.3424963840364148,0.35373381025415296,-0.39798316450064725,-0.5380811393013213,0.9460555106035289,1.0061931382682678,2,6,0.045404666997141116,0.06534875812761468,-0.0004079979741656874,0.00039599803374905027,0.25144228723757855,0.2420586931874582,3.0875173558055957,4.443715552677798,10,16,7
0.32630700021785725,0.2489183123391821,0.32641991613020294,0.25520103585349774,-0.68288783699834,-0.5146259183634553,0.466361703668082,0.5701452322222024,3,3,0.04800721041671289,0.028786986022432112,0.00026087541700279675,0.0002778890311551527,0.2631983281885626,0.17509962001803178,3.456519150003328,2.072662993615112,4,0,1
0.1998635378081932,0.2983639504643587,0.20941118898636552,0.29844298701085725,-0.49977859713737177,-0.5620070490749125,0.2894301326266187,0.5721858059318052,4,1,0.03337729548814469,0.036597213692946794,8.279958887480239e-05,0.00014649158031695397,0.14221324860176957,0.23809135656434838,2.1361469112412603,2.342221676348595,4,0,2
0.31209238671623063,0.24057765383779925,0.31377403798584264,0.24132247122599415,-0.5835767715825266,-0.34379327558655887,0.45801599822902206,0.473483824727143,1,3,0.03405301590634431,0.03581126761004753,0.0003472240823782005,0.00028045022038238905,0.2723097594184048,0.20240197727078554,2.077233970287003,2.184487324212899,2,2,3
0.24885529136395382,0.17475197438291562,0.24982029038232204,0.17614323119066086,-0.4821093424509465,-0.3356264020038916,0.521171586391371,0.27728381274444935,4,4,0.0359354570825567,0.033219089591492945,0.0001910759743264666,3.8215194865295665e-05,0.17455390501283627,0.14621203405162836,2.299869253283629,2.1260217338555485,1,0,4
0.2810837045253711,0.23338467361200663,0.2837479301656289,0.23397146437302085,-0.3711407063500536,-0.3323051632915143,0.6710615531410791,0.43371689267136787,3,2,0.03697977760157893,0.029835585900037254,0.0003417125890071148,-0.0006505681983020086,0.20903402823515796,0.19906398723508267,2.2927462112978936,1.8498063258023099,0,0,5
