std_dev_ch1,std_dev_ch2,rms_ch1,rms_ch2,min_ch1,min_ch2,max_ch1,max_ch2,zero_crossings_ch1,zero_crossings_ch2,avg_amp_change_ch1,avg_amp_change_ch2,amp_first_burst_ch1,amp_first_burst_ch2,mean_abs_value_ch1,mean_abs_value_ch2,wave_form_length_ch1,wave_form_length_ch2,willison_amp_ch1,willison_amp_ch2,classification,ch1_data_0,ch1_data_1,ch1_data_2,ch1_data_3,ch1_data_4,ch1_data_5,ch1_data_6,ch1_data_7,ch1_data_8,ch1_data_9,ch1_data_10,ch1_data_11,ch1_data_12,ch1_data_13,ch1_data_14,ch1_data_15,ch1_data_16,ch1_data_17,ch1_data_18,ch1_data_19,ch1_data_20,ch1_data_21,ch1_data_22,ch1_data_23,ch1_data_24,ch1_data_25,ch1_data_26,ch1_data_27,ch1_data_28,ch1_data_29,ch1_data_30,ch1_data_31,ch1_data_32,ch1_data_33,ch1_data_34,ch1_data_35,ch1_data_36,ch1_data_37,ch1_data_38,ch1_data_39,ch1_data_40,ch1_data_41,ch1_data_42,ch1_data_43,ch1_data_44,ch1_data_45,ch1_data_46,ch1_data_47,ch1_data_48,ch1_data_49,ch1_data_50,ch1_data_51,ch1_data_52,ch1_data_53,ch1_data_54,ch2_data_0,ch2_data_1,ch2_data_2,ch2_data_3,ch2_data_4,ch2_data_5,ch2_data_6,ch2_data_7,ch2_data_8,ch2_data_9,ch2_data_10,ch2_data_11,ch2_data_12,ch2_data_13,ch2_data_14,ch2_data_15,ch2_data_16,ch2_data_17,ch2_data_18,ch2_data_19,ch2_data_20,ch2_data_21,ch2_data_22,ch2_data_23,ch2_data_24,ch2_data_25,ch2_data_26,ch2_data_27,ch2_data_28,ch2_data_29,ch2_data_30,ch2_data_31,ch2_data_32,ch2_data_33,ch2_data_34,ch2_data_35,ch2_data_36,ch2_data_37,ch2_data_38,ch2_data_39,ch2_data_40,ch2_data_41,ch2_data_42,ch2_data_43,ch2_data_44,ch2_data_45,ch2_data_46,ch2_data_47,ch2_data_48,ch2_data_49,ch2_data_50,ch2_data_51,ch2_data_52,ch2_data_53,ch2_data_54
10.08569191897798,9.774972933518292,10.098005131460777,9.785726355441119,-17.675839937433025,-16.750750767805048,16.790813322584977,15.903251841469876,4,4,1.561708304431824,1.5136077865835451,0.0019679902283286084,0.0010079949949975814,8.32944005314274,8.160705212029928,106.19616470136404,102.92532948768107,62,61,1,4.753623188405797,1.753623188405797,-0.2463768115942031,-5.246376811594203,-8.246376811594203,-11.246376811594203,-11.246376811594203,-15.246376811594203,-17.246376811594203,-16.246376811594203,-12.246376811594203,-10.246376811594203,-8.246376811594203,-7.246376811594203,13.753623188405797,17.753623188405797,19.753623188405797,18.753623188405797,17.753623188405797,16.753623188405797,14.753623188405797,13.753623188405797,12.753623188405797,10.753623188405797,9.753623188405797,6.753623188405797,5.753623188405797,4.753623188405797,2.753623188405797,-3.246376811594203,-6.246376811594203,-10.246376811594203,-11.246376811594203,-14.246376811594203,-15.246376811594203,-16.246376811594203,-17.246376811594203,-17.246376811594203,-16.246376811594203,-15.246376811594203,-13.246376811594203,-11.246376811594203,-10.246376811594203,-9.246376811594203,-8.246376811594203,-7.246376811594203,-5.246376811594203,-4.246376811594203,-3.246376811594203,-2.246376811594203,2.753623188405797,6.753623188405797,8.753623188405797,11.753623188405797,14.753623188405797,14.753623188405797,15.753623188405797,14.753623188405797,12.753623188405797,10.753623188405797,9.753623188405797,8.753623188405797,7.753623188405797,5.753623188405797,4.753623188405797,2.753623188405797,0.7536231884057969,-1.246376811594203,-5.246376811594203,2.434782608695656,1.4347826086956559,-1.5652173913043441,-6.565217391304344,-9.565217391304344,-11.565217391304344,-12.565217391304344,-15.565217391304344,-17.565217391304344,-14.565217391304344,-11.565217391304344,-9.565217391304344,-8.565217391304344,-6.565217391304344,14.434782608695656,17.434782608695656,18.434782608695656,18.434782608695656,17.434782608695656,16.434782608695656,13.434782608695656,12.434782608695656,10.434782608695656,9.434782608695656,8.434782608695656,6.434782608695656,4.434782608695656,3.434782608695656,1.4347826086956559,-4.565217391304344,-7.565217391304344,-10.565217391304344,-12.565217391304344,-14.565217391304344,-14.565217391304344,-14.565217391304344,-16.565217391304344,-15.565217391304344,-14.565217391304344,-13.565217391304344,-12.565217391304344,-10.565217391304344,-8.565217391304344,-8.565217391304344,-6.565217391304344,-5.565217391304344,-5.565217391304344,-2.565217391304344,-1.5652173913043441,-0.5652173913043441,5.434782608695656,8.434782608695656,10.434782608695656,13.434782608695656,14.434782608695656,15.434782608695656,14.434782608695656,14.434782608695656,12.434782608695656,10.434782608695656,9.434782608695656,8.434782608695656,7.434782608695656,4.434782608695656,4.434782608695656,3.434782608695656,1.4347826086956559,-1.5652173913043441,-5.565217391304344
9.526788636568414,9.012518900780078,9.646644212569027,9.151592776847156,-13.108487661954351,-12.860359307672447,17.10167138991916,15.92052112032533,2,2,1.5082363453764684,1.4528700503006202,-0.002483987666244036,-0.0036130729690822374,8.231334421391562,7.824310152832754,81.4447626503293,78.45498271623349,50,50,2,-6.0,-9.0,-12.0,-15.0,-15.0,-15.0,-14.0,-13.0,-12.0,-11.0,-10.0,-9.0,-7.0,-7.0,-5.0,-2.0,4.0,8.0,11.0,15.0,17.0,19.0,18.0,16.0,15.0,14.0,13.0,11.0,10.0,8.0,7.0,5.0,1.0,-3.0,-7.0,-10.0,-14.0,-14.0,-13.0,-12.0,-9.0,-9.0,-7.0,-6.0,-4.0,-3.0,-1.0,0.0,2.0,4.0,9.0,13.0,16.0,18.0,20.0,-8.727272727272734,-9.727272727272734,-13.727272727272734,-14.727272727272734,-13.727272727272734,-14.727272727272734,-13.727272727272734,-11.727272727272734,-11.727272727272734,-10.727272727272734,-9.727272727272734,-7.727272727272734,-6.727272727272734,-5.727272727272734,-3.7272727272727337,-0.7272727272727337,4.272727272727266,9.272727272727266,11.272727272727266,14.272727272727266,16.272727272727266,17.272727272727266,17.272727272727266,16.272727272727266,13.272727272727266,12.272727272727266,10.272727272727266,9.272727272727266,8.272727272727266,7.272727272727266,6.272727272727266,4.272727272727266,0.27272727272726627,-4.727272727272734,-8.727272727272734,-10.727272727272734,-12.727272727272734,-12.727272727272734,-12.727272727272734,-10.727272727272734,-9.727272727272734,-6.727272727272734,-5.727272727272734,-4.727272727272734,-2.7272727272727337,-1.7272727272727337,-0.7272727272727337,0.27272727272726627,2.2727272727272663,5.272727272727266,10.272727272727266,13.272727272727266,16.272727272727266,18.272727272727266,19.272727272727266
7.426329125839294,7.202624347116339,7.747541308460406,7.507349014682746,-14.782063004779797,-14.776514162838923,10.234985351893696,10.015076841924706,3,3,1.417223212773571,1.3627637326712896,-0.005502409042498149,-0.005201319628407966,6.505376779153777,6.231766781118956,76.53005348977284,73.58924156424963,50,53,3,-13.290909090909082,-12.290909090909082,-12.290909090909082,-11.290909090909082,-10.290909090909082,-8.290909090909082,-7.290909090909082,-6.290909090909082,-4.290909090909082,-0.2909090909090821,3.709090909090918,6.709090909090918,8.709090909090918,10.709090909090918,11.709090909090918,10.709090909090918,10.709090909090918,8.709090909090918,7.709090909090918,6.709090909090918,5.709090909090918,3.709090909090918,2.709090909090918,1.7090909090909179,0.7090909090909179,-0.2909090909090821,-4.290909090909082,-9.290909090909082,-13.290909090909082,-15.290909090909082,-17.290909090909082,-16.290909090909082,-14.290909090909082,-13.290909090909082,-11.290909090909082,-10.290909090909082,-9.290909090909082,-8.290909090909082,-6.290909090909082,-5.290909090909082,-3.290909090909082,-2.290909090909082,-1.2909090909090821,1.7090909090909179,6.709090909090918,9.709090909090918,12.709090909090918,14.709090909090918,16.709090909090918,17.709090909090918,16.709090909090918,14.709090909090918,12.709090909090918,11.709090909090918,10.709090909090918,-12.563636363636363,-11.563636363636363,-10.563636363636363,-9.563636363636363,-9.563636363636363,-7.563636363636363,-6.563636363636363,-4.563636363636363,-3.5636363636363626,1.4363636363636374,5.436363636363637,6.436363636363637,9.436363636363637,10.436363636363637,11.436363636363637,11.436363636363637,8.436363636363637,7.436363636363637,6.436363636363637,5.436363636363637,4.436363636363637,3.4363636363636374,1.4363636363636374,0.4363636363636374,-0.5636363636363626,-2.5636363636363626,-6.563636363636363,-10.563636363636363,-13.563636363636363,-15.563636363636363,-17.563636363636363,-15.563636363636363,-14.563636363636363,-12.563636363636363,-10.563636363636363,-10.563636363636363,-8.563636363636363,-7.563636363636363,-5.563636363636363,-3.5636363636363626,-2.5636363636363626,-1.5636363636363626,-1.5636363636363626,3.4363636363636374,7.436363636363637,10.436363636363637,12.436363636363637,15.436363636363637,16.436363636363637,16.436363636363637,16.436363636363637,13.436363636363637,12.436363636363637,10.436363636363637,9.436363636363637
9.812126578227545,9.53061813994743,9.850745271644222,9.559907741455216,-12.534810435063969,-11.753989791019595,19.562519476097282,19.020092008183774,3,3,1.4190707367176498,1.360099125188727,0.0019420267208816995,0.0013774840694626021,7.76620077920659,7.553310999585593,76.62981978275309,73.44535276019127,48,49,4,4.690909090909088,3.690909090909088,2.690909090909088,1.6909090909090878,-2.309090909090912,-7.309090909090912,-12.309090909090912,-13.309090909090912,-17.309090909090912,-15.309090909090912,-14.309090909090912,-13.309090909090912,-11.309090909090912,-10.309090909090912,-8.309090909090912,-6.309090909090912,-5.309090909090912,-3.309090909090912,-2.309090909090912,0.6909090909090878,2.690909090909088,3.690909090909088,9.690909090909088,13.690909090909088,16.690909090909088,18.690909090909088,20.690909090909088,21.690909090909088,21.690909090909088,18.690909090909088,15.690909090909088,14.690909090909088,12.690909090909088,10.690909090909088,8.690909090909088,7.690909090909088,6.690909090909088,4.690909090909088,3.690909090909088,-0.3090909090909122,-5.309090909090912,-7.309090909090912,-10.309090909090912,-13.309090909090912,-12.309090909090912,-11.309090909090912,-10.309090909090912,-9.309090909090912,-6.309090909090912,-5.309090909090912,-4.309090909090912,-3.309090909090912,-2.309090909090912,-1.3090909090909122,-1.3090909090909122,3.327272727272728,3.327272727272728,1.327272727272728,0.32727272727272805,-3.672727272727272,-7.672727272727272,-11.672727272727272,-13.672727272727272,-15.672727272727272,-14.672727272727272,-13.672727272727272,-11.672727272727272,-10.672727272727272,-8.672727272727272,-6.672727272727272,-5.672727272727272,-4.672727272727272,-2.672727272727272,-0.672727272727272,1.327272727272728,2.327272727272728,5.327272727272728,10.327272727272728,14.327272727272728,17.327272727272728,19.327272727272728,20.327272727272728,21.327272727272728,20.327272727272728,17.327272727272728,15.327272727272728,13.327272727272728,11.327272727272728,9.327272727272728,8.327272727272728,7.327272727272728,5.327272727272728,4.327272727272728,2.327272727272728,-2.672727272727272,-5.672727272727272,-8.672727272727272,-11.672727272727272,-13.672727272727272,-13.672727272727272,-10.672727272727272,-9.672727272727272,-7.672727272727272,-5.672727272727272,-4.672727272727272,-3.672727272727272,-2.672727272727272,-1.672727272727272,-0.672727272727272,0.32727272727272805
8.795398863207927,8.616391697264959,8.798616106531549,8.623597085961023,-11.969093412203927,-11.767606117725535,15.927769324124453,15.622865428853789,2,2,1.234832844337474,1.23053426070271,-0.0015280287765076937,-0.0024312970187782544,7.407796564279669,7.303763691618951,66.6809735942236,66.44885007794635,49,52,5,-3.690909090909088,-6.690909090909088,-9.690909090909088,-12.690909090909088,-14.690909090909088,-15.690909090909088,-13.690909090909088,-12.690909090909088,-10.690909090909088,-9.690909090909088,-8.690909090909088,-7.690909090909088,-5.690909090909088,-4.690909090909088,-2.690909090909088,-1.6909090909090878,-0.6909090909090878,0.3090909090909122,5.309090909090912,9.309090909090912,12.309090909090912,14.309090909090912,16.309090909090912,17.309090909090912,17.309090909090912,16.309090909090912,14.309090909090912,12.309090909090912,11.309090909090912,10.309090909090912,9.309090909090912,9.309090909090912,8.309090909090912,7.309090909090912,6.309090909090912,3.309090909090912,-1.6909090909090878,-5.690909090909088,-8.690909090909088,-9.690909090909088,-10.690909090909088,-9.690909090909088,-8.690909090909088,-7.690909090909088,-5.690909090909088,-5.690909090909088,-3.690909090909088,-1.6909090909090878,-1.6909090909090878,-0.6909090909090878,0.3090909090909122,2.309090909090912,3.309090909090912,6.309090909090912,10.309090909090912,-5.872727272727275,-7.872727272727275,-10.872727272727275,-12.872727272727275,-14.872727272727275,-14.872727272727275,-12.872727272727275,-12.872727272727275,-9.872727272727275,-8.872727272727275,-7.872727272727275,-5.872727272727275,-4.872727272727275,-3.872727272727275,-2.872727272727275,-0.8727272727272748,0.1272727272727252,2.127272727272725,7.127272727272725,11.127272727272725,13.127272727272725,15.127272727272725,16.127272727272725,17.127272727272725,16.127272727272725,15.127272727272725,13.127272727272725,12.127272727272725,11.127272727272725,9.127272727272725,8.127272727272725,7.127272727272725,7.127272727272725,6.127272727272725,5.127272727272725,1.1272727272727252,-2.872727272727275,-6.872727272727275,-8.872727272727275,-10.872727272727275,-10.872727272727275,-9.872727272727275,-8.872727272727275,-6.872727272727275,-5.872727272727275,-3.872727272727275,-2.872727272727275,-1.8727272727272748,-0.8727272727272748,0.1272727272727252,1.1272727272727252,2.127272727272725,3.127272727272725,8.127272727272725,11.127272727272725
10.581401131156232,8.576184543781636,10.620785415800743,8.596675786955396,-18.951740168028678,-12.160618369065133,19.65624845267534,17.250379729108186,3,3,1.3687480160762862,1.1348241035424305,-0.05757797384806792,-0.004505588017992429,9.009553404529353,7.252194311276117,104.02484922179775,86.24663186922471,76,73,6,-139.07792207792207,-8.077922077922068,-7.077922077922068,-5.077922077922068,-4.077922077922068,-3.077922077922068,-1.077922077922068,3.922077922077932,-18.077922077922068,-18.077922077922068,-15.077922077922068,-14.077922077922068,-12.077922077922068,-11.077922077922068,-9.077922077922068,-8.077922077922068,-7.077922077922068,-5.077922077922068,-4.077922077922068,-3.077922077922068,-1.077922077922068,3.922077922077932,-5.077922077922068,-3.077922077922068,-2.077922077922068,1.922077922077932,5.922077922077932,9.922077922077932,12.922077922077932,13.922077922077932,14.922077922077932,15.922077922077932,12.922077922077932,10.922077922077932,9.922077922077932,7.922077922077932,6.922077922077932,4.922077922077932,4.922077922077932,4.922077922077932,3.922077922077932,2.922077922077932,-2.077922077922068,-6.077922077922068,-9.077922077922068,-11.077922077922068,-13.077922077922068,-11.077922077922068,-11.077922077922068,-9.077922077922068,-7.077922077922068,-5.077922077922068,-4.077922077922068,-3.077922077922068,-1.077922077922068,0.922077922077932,1.922077922077932,2.922077922077932,5.922077922077932,9.922077922077932,14.922077922077932,16.922077922077932,18.922077922077932,20.922077922077932,20.922077922077932,20.922077922077932,18.922077922077932,16.922077922077932,14.922077922077932,13.922077922077932,11.922077922077932,10.922077922077932,8.922077922077932,7.922077922077932,5.922077922077932,0.922077922077932,-3.077922077922068,-10.883116883116884,-8.883116883116884,-7.883116883116884,-5.883116883116884,-4.883116883116884,-3.883116883116884,-0.8831168831168839,3.116883116883116,-19.883116883116884,-17.883116883116884,-16.883116883116884,-14.883116883116884,-12.883116883116884,-11.883116883116884,-10.883116883116884,-8.883116883116884,-7.883116883116884,-5.883116883116884,-4.883116883116884,-3.883116883116884,-0.8831168831168839,3.116883116883116,-6.883116883116884,-3.883116883116884,-2.883116883116884,1.1168831168831161,6.116883116883116,8.116883116883116,10.116883116883116,12.116883116883116,13.116883116883116,13.116883116883116,10.116883116883116,8.116883116883116,7.116883116883116,5.116883116883116,4.116883116883116,2.116883116883116,1.1168831168831161,1.1168831168831161,2.116883116883116,-0.8831168831168839,-4.883116883116884,-9.883116883116884,-11.883116883116884,-13.883116883116884,-13.883116883116884,-12.883116883116884,-10.883116883116884,-9.883116883116884,-7.883116883116884,-5.883116883116884,-4.883116883116884,-3.883116883116884,-1.8831168831168839,-0.8831168831168839,0.11688311688311614,2.116883116883116,5.116883116883116,10.116883116883116,13.116883116883116,16.116883116883116,18.116883116883116,19.116883116883116,19.116883116883116,18.116883116883116,15.116883116883116,14.116883116883116,12.116883116883116,11.116883116883116,9.116883116883116,8.116883116883116,6.116883116883116,5.116883116883116,3.116883116883116,-1.8831168831168839,-5.883116883116884
8.165625747569882,7.940578936550385,8.182212557713452,7.970625260525056,-10.825371138276054,-10.858498655248129,15.529081917256889,14.748711898202357,3,3,1.2270059156888906,1.1959731522607453,0.0009409044190318351,0.00036883453226048386,6.677583558244106,6.579222273430652,66.2583194472001,64.58255022208024,47,46,7,2.2727272727272805,3.2727272727272805,1.2727272727272805,-3.7272727272727195,-6.7272727272727195,-10.72727272727272,-13.72727272727272,-13.72727272727272,-13.72727272727272,-11.72727272727272,-10.72727272727272,-9.72727272727272,-7.7272727272727195,-7.7272727272727195,-5.7272727272727195,-4.7272727272727195,-4.7272727272727195,-3.7272727272727195,-2.7272727272727195,0.2727272727272805,6.2727272727272805,10.27272727272728,13.27272727272728,16.27272727272728,17.27272727272728,17.27272727272728,16.27272727272728,14.27272727272728,12.27272727272728,11.27272727272728,9.27272727272728,8.27272727272728,7.2727272727272805,6.2727272727272805,4.2727272727272805,3.2727272727272805,-2.7272727272727195,-5.7272727272727195,-8.72727272727272,-10.72727272727272,-12.72727272727272,-10.72727272727272,-9.72727272727272,-7.7272727272727195,-5.7272727272727195,-4.7272727272727195,-2.7272727272727195,-1.7272727272727195,0.2727272727272805,1.2727272727272805,2.2727272727272805,3.2727272727272805,5.2727272727272805,9.27272727272728,13.27272727272728,0.8909090909091049,0.8909090909091049,-1.1090909090908951,-5.109090909090895,-9.109090909090895,-12.109090909090895,-15.109090909090895,-14.109090909090895,-13.109090909090895,-11.109090909090895,-10.109090909090895,-8.109090909090895,-7.109090909090895,-6.109090909090895,-5.109090909090895,-4.109090909090895,-4.109090909090895,-2.109090909090895,-1.1090909090908951,2.890909090909105,7.890909090909105,10.890909090909105,13.890909090909105,15.890909090909105,16.890909090909105,15.890909090909105,14.890909090909105,12.890909090909105,10.890909090909105,9.890909090909105,8.890909090909105,7.890909090909105,6.890909090909105,4.890909090909105,3.890909090909105,0.8909090909091049,-4.109090909090895,-8.109090909090895,-10.109090909090895,-11.109090909090895,-12.109090909090895,-10.109090909090895,-8.109090909090895,-6.109090909090895,-4.109090909090895,-3.109090909090895,-2.109090909090895,-1.1090909090908951,-0.10909090909089514,1.8909090909091049,3.890909090909105,3.890909090909105,6.890909090909105,10.890909090909105,13.890909090909105
6.381596940003121,5.9459629741689595,6.415615447208828,5.993481781227893,-11.865800749892939,-10.942452477363215,8.970861777012304,9.106333783007692,2,2,0.9747788212729046,0.9163226749954675,0.0052765919819305115,0.004983029803192583,5.454500872735302,5.0653104416173145,52.638056348736846,49.481424449755245,52,51,1,12.745454545454542,12.745454545454542,11.745454545454542,9.745454545454542,7.7454545454545425,4.7454545454545425,2.7454545454545425,2.7454545454545425,1.7454545454545425,0.7454545454545425,-0.2545454545454575,-1.2545454545454575,-2.2545454545454575,-3.2545454545454575,-7.2545454545454575,-10.254545454545458,-12.254545454545458,-13.254545454545458,-14.254545454545458,-14.254545454545458,-11.254545454545458,-9.254545454545458,-7.2545454545454575,-6.2545454545454575,-4.2545454545454575,-3.2545454545454575,-3.2545454545454575,-1.2545454545454575,-1.2545454545454575,-1.2545454545454575,-0.2545454545454575,0.7454545454545425,1.7454545454545425,1.7454545454545425,6.7454545454545425,8.745454545454542,9.745454545454542,9.745454545454542,10.745454545454542,10.745454545454542,10.745454545454542,8.745454545454542,6.7454545454545425,4.7454545454545425,1.7454545454545425,1.7454545454545425,0.7454545454545425,-1.2545454545454575,-1.2545454545454575,-1.2545454545454575,-3.2545454545454575,-4.2545454545454575,-4.2545454545454575,-9.254545454545458,-11.254545454545458,12.036363636363639,12.036363636363639,10.036363636363639,7.036363636363639,5.036363636363639,4.036363636363639,2.036363636363639,2.036363636363639,1.0363636363636388,1.0363636363636388,-0.9636363636363612,-0.9636363636363612,-1.9636363636363612,-2.963636363636361,-7.963636363636361,-9.963636363636361,-11.963636363636361,-12.963636363636361,-12.963636363636361,-12.963636363636361,-9.963636363636361,-7.963636363636361,-6.963636363636361,-4.963636363636361,-2.963636363636361,-1.9636363636363612,-1.9636363636363612,-0.9636363636363612,0.03636363636363882,0.03636363636363882,1.0363636363636388,1.0363636363636388,2.036363636363639,3.036363636363639,7.036363636363639,10.036363636363639,10.036363636363639,11.036363636363639,12.036363636363639,11.036363636363639,9.036363636363639,8.036363636363639,5.036363636363639,3.036363636363639,2.036363636363639,1.0363636363636388,0.03636363636363882,-0.9636363636363612,-1.9636363636363612,-1.9636363636363612,-2.963636363636361,-3.963636363636361,-5.963636363636361,-9.963636363636361,-11.963636363636361
5.994509094198271,5.467963935918888,6.021733487226421,5.505412369805815,-13.875998209466394,-12.637070469553084,8.644570948779348,8.364979884617558,2,2,0.7664964426533615,0.7356790646414831,0.0022517449169610565,0.0019942583905821036,4.668246834427576,4.230591682641234,62.08621185492228,59.59000423596014,73,71,2,5.439024390243901,4.439024390243901,1.439024390243901,1.439024390243901,0.43902439024390105,-1.560975609756099,-1.560975609756099,-2.560975609756099,-3.560975609756099,4.439024390243901,7.439024390243901,9.439024390243901,10.439024390243901,11.439024390243901,11.439024390243901,11.439024390243901,10.439024390243901,7.439024390243901,5.439024390243901,4.439024390243901,1.439024390243901,1.439024390243901,0.43902439024390105,-1.560975609756099,-1.560975609756099,-2.560975609756099,-3.560975609756099,10.439024390243901,9.439024390243901,9.439024390243901,7.439024390243901,3.439024390243901,2.439024390243901,1.439024390243901,0.43902439024390105,-0.560975609756099,-1.560975609756099,-1.560975609756099,-3.560975609756099,-3.560975609756099,-4.560975609756099,-7.560975609756099,-11.560975609756099,-13.560975609756099,-14.560975609756099,-15.560975609756099,-16.5609756097561,-15.560975609756099,-11.560975609756099,-10.560975609756099,-8.560975609756099,-6.560975609756099,-5.560975609756099,-4.560975609756099,-4.560975609756099,-2.560975609756099,-2.560975609756099,-1.560975609756099,-0.560975609756099,-0.560975609756099,0.43902439024390105,5.439024390243901,6.439024390243901,9.439024390243901,9.439024390243901,10.439024390243901,10.439024390243901,9.439024390243901,8.439024390243901,5.439024390243901,3.439024390243901,1.439024390243901,0.43902439024390105,-0.560975609756099,-2.560975609756099,-2.560975609756099,-3.560975609756099,-3.560975609756099,-4.560975609756099,-6.560975609756099,-10.560975609756099,-12.560975609756099,4.81707317073171,2.8170731707317103,1.8170731707317103,0.8170731707317103,-0.18292682926828974,-1.1829268292682897,-2.1829268292682897,-3.1829268292682897,-3.1829268292682897,5.81707317073171,7.81707317073171,9.81707317073171,10.81707317073171,10.81707317073171,11.81707317073171,10.81707317073171,8.81707317073171,6.81707317073171,4.81707317073171,2.8170731707317103,1.8170731707317103,0.8170731707317103,-0.18292682926828974,-1.1829268292682897,-2.1829268292682897,-3.1829268292682897,-3.1829268292682897,8.81707317073171,9.81707317073171,8.81707317073171,6.81707317073171,3.8170731707317103,2.8170731707317103,1.8170731707317103,0.8170731707317103,-0.18292682926828974,-1.1829268292682897,-2.1829268292682897,-2.1829268292682897,-3.1829268292682897,-4.18292682926829,-8.18292682926829,-11.18292682926829,-13.18292682926829,-14.18292682926829,-14.18292682926829,-15.18292682926829,-12.18292682926829,-10.18292682926829,-9.18292682926829,-6.18292682926829,-5.18292682926829,-5.18292682926829,-3.1829268292682897,-2.1829268292682897,-3.1829268292682897,-1.1829268292682897,-1.1829268292682897,-0.18292682926828974,-0.18292682926828974,1.8170731707317103,4.81707317073171,7.81707317073171,8.81707317073171,8.81707317073171,9.81707317073171,9.81707317073171,8.81707317073171,6.81707317073171,3.8170731707317103,1.8170731707317103,0.8170731707317103,-0.18292682926828974,-2.1829268292682897,-2.1829268292682897,-3.1829268292682897,-3.1829268292682897,-4.18292682926829,-5.18292682926829,-7.18292682926829,-11.18292682926829,-14.18292682926829
6.741053643049425,6.3681865756575995,6.7978225606543985,6.414466689687367,-13.475384455381985,-14.062737983978323,10.40371654869159,8.450097189625733,5,6,1.1938434890442973,0.9684796831057968,-0.019390768583787906,0.0004587544789009244,5.638445406788061,4.909060234708633,87.1505747002337,70.69901686672317,71,62,3,-46.83783783783784,-1.8378378378378386,-1.8378378378378386,-0.8378378378378386,0.1621621621621614,1.1621621621621614,1.1621621621621614,4.162162162162161,7.162162162162161,9.162162162162161,11.162162162162161,11.162162162162161,12.162162162162161,12.162162162162161,11.162162162162161,9.162162162162161,6.162162162162161,4.162162162162161,3.1621621621621614,-8.837837837837839,-5.837837837837839,-5.837837837837839,-4.837837837837839,-2.8378378378378386,-2.8378378378378386,-1.8378378378378386,-0.8378378378378386,-0.8378378378378386,0.1621621621621614,2.1621621621621614,5.162162162162161,8.162162162162161,9.162162162162161,11.162162162162161,10.162162162162161,11.162162162162161,9.162162162162161,7.162162162162161,6.162162162162161,3.1621621621621614,1.1621621621621614,1.1621621621621614,0.1621621621621614,-0.8378378378378386,-1.8378378378378386,-1.8378378378378386,-3.8378378378378386,-3.8378378378378386,-7.837837837837839,-11.837837837837839,-13.837837837837839,-14.837837837837839,-15.837837837837839,-15.837837837837839,-15.837837837837839,-12.837837837837839,-9.837837837837839,-7.837837837837839,-6.837837837837839,-4.837837837837839,-4.837837837837839,-3.8378378378378386,-2.8378378378378386,-1.8378378378378386,-0.8378378378378386,0.1621621621621614,0.1621621621621614,1.1621621621621614,6.162162162162161,9.162162162162161,11.162162162162161,11.162162162162161,11.162162162162161,11.162162162162161,1.1081081081081052,-1.8918918918918948,-1.8918918918918948,-0.8918918918918948,0.10810810810810523,0.10810810810810523,1.1081081081081052,4.108108108108105,7.108108108108105,9.108108108108105,10.108108108108105,11.108108108108105,11.108108108108105,11.108108108108105,9.108108108108105,7.108108108108105,4.108108108108105,2.1081081081081052,1.1081081081081052,-8.891891891891895,-5.891891891891895,-5.891891891891895,-4.891891891891895,-3.8918918918918948,-2.8918918918918948,-1.8918918918918948,-0.8918918918918948,-0.8918918918918948,0.10810810810810523,3.1081081081081052,6.108108108108105,8.108108108108105,8.108108108108105,10.108108108108105,10.108108108108105,10.108108108108105,8.108108108108105,6.108108108108105,4.108108108108105,2.1081081081081052,0.10810810810810523,-0.8918918918918948,-1.8918918918918948,-1.8918918918918948,-2.8918918918918948,-3.8918918918918948,-3.8918918918918948,-5.891891891891895,-8.891891891891895,-12.891891891891895,-15.891891891891895,-15.891891891891895,-15.891891891891895,-16.891891891891895,-13.891891891891895,-11.891891891891895,-10.891891891891895,-7.891891891891895,-5.891891891891895,-5.891891891891895,-4.891891891891895,-3.8918918918918948,-2.8918918918918948,-1.8918918918918948,-1.8918918918918948,-0.8918918918918948,-0.8918918918918948,2.1081081081081052,6.108108108108105,9.108108108108105,9.108108108108105,10.108108108108105,10.108108108108105,9.108108108108105
5.659153543083395,5.3810365950437555,5.666418682573878,5.387346469156673,-10.148855012616993,-10.388747336257891,12.538626903497143,11.612710680605382,5,5,0.8808364781179925,0.8448760604092274,0.0004760976360301063,0.0006158219422563328,4.357765042550024,4.123186672692601,69.5860817713214,66.74520877232897,73,73,4,1.1499999999999986,2.1499999999999986,2.1499999999999986,4.149999999999999,8.149999999999999,11.149999999999999,11.149999999999999,-13.850000000000001,-11.850000000000001,-9.850000000000001,-8.850000000000001,-5.850000000000001,-3.8500000000000014,-2.8500000000000014,-1.8500000000000014,-0.8500000000000014,-0.8500000000000014,0.14999999999999858,1.1499999999999986,2.1499999999999986,2.1499999999999986,4.149999999999999,8.149999999999999,11.149999999999999,11.149999999999999,-14.850000000000001,-13.850000000000001,-11.850000000000001,-9.850000000000001,-6.850000000000001,-4.850000000000001,-2.8500000000000014,-2.8500000000000014,-1.8500000000000014,-0.8500000000000014,0.14999999999999858,1.1499999999999986,2.1499999999999986,3.1499999999999986,3.1499999999999986,6.149999999999999,9.149999999999999,12.149999999999999,12.149999999999999,13.149999999999999,14.149999999999999,12.149999999999999,11.149999999999999,10.149999999999999,7.149999999999999,6.149999999999999,4.149999999999999,4.149999999999999,3.1499999999999986,1.1499999999999986,1.1499999999999986,-0.8500000000000014,-0.8500000000000014,-1.8500000000000014,-5.850000000000001,-8.850000000000001,-11.850000000000001,-9.850000000000001,-13.850000000000001,-13.850000000000001,-10.850000000000001,-8.850000000000001,-6.850000000000001,-5.850000000000001,-3.8500000000000014,-2.8500000000000014,-1.8500000000000014,-0.8500000000000014,0.14999999999999858,1.1499999999999986,1.1499999999999986,2.1499999999999986,3.1499999999999986,5.149999999999999,10.149999999999999,1.4874999999999972,1.4874999999999972,2.487499999999997,5.487499999999997,8.487499999999997,11.487499999999997,11.487499999999997,-13.512500000000003,-11.512500000000003,-9.512500000000003,-6.512500000000003,-4.512500000000003,-3.512500000000003,-2.512500000000003,-1.5125000000000028,-0.5125000000000028,0.48749999999999716,1.4874999999999972,1.4874999999999972,1.4874999999999972,2.487499999999997,5.487499999999997,8.487499999999997,11.487499999999997,11.487499999999997,-14.512500000000003,-12.512500000000003,-10.512500000000003,-8.512500000000003,-5.512500000000003,-3.512500000000003,-2.512500000000003,-1.5125000000000028,-1.5125000000000028,-0.5125000000000028,0.48749999999999716,1.4874999999999972,1.4874999999999972,2.487499999999997,3.487499999999997,6.487499999999997,9.487499999999997,11.487499999999997,11.487499999999997,12.487499999999997,12.487499999999997,12.487499999999997,10.487499999999997,8.487499999999997,5.487499999999997,3.487499999999997,3.487499999999997,2.487499999999997,1.4874999999999972,0.48749999999999716,-0.5125000000000028,-1.5125000000000028,-2.512500000000003,-2.512500000000003,-7.512500000000003,-9.512500000000003,-11.512500000000003,-12.512500000000003,-13.512500000000003,-13.512500000000003,-10.512500000000003,-8.512500000000003,-6.512500000000003,-4.512500000000003,-3.512500000000003,-2.512500000000003,-1.5125000000000028,-0.5125000000000028,-0.5125000000000028,0.48749999999999716,1.4874999999999972,1.4874999999999972,2.487499999999997,5.487499999999997,8.487499999999997
6.7108371186618445,6.227448234792448,6.750869528007078,6.265844521193926,-6.694606227488906,-7.632167310606496,15.900359825786122,14.400539439385309,2,3,0.8521063829105704,0.832686808450229,-0.020901301624071437,7.272936860624493e-05,5.246823973025752,4.752625809844696,62.203765952471635,60.78613701686672,67,67,5,-50.486486486486484,5.513513513513516,4.513513513513516,3.513513513513516,2.513513513513516,2.513513513513516,1.5135135135135158,-0.4864864864864842,-4.486486486486484,-6.486486486486484,-8.486486486486484,-9.486486486486484,-10.486486486486484,-10.486486486486484,-5.486486486486484,-4.486486486486484,-2.486486486486484,-1.4864864864864842,-0.4864864864864842,2.513513513513516,3.513513513513516,2.513513513513516,1.5135135135135158,0.5135135135135158,-0.4864864864864842,-5.486486486486484,-8.486486486486484,-9.486486486486484,-10.486486486486484,-10.486486486486484,-11.486486486486484,-7.486486486486484,-6.486486486486484,-2.486486486486484,-0.4864864864864842,-0.4864864864864842,0.5135135135135158,1.5135135135135158,2.513513513513516,2.513513513513516,4.513513513513516,5.513513513513516,5.513513513513516,6.513513513513516,9.513513513513516,13.513513513513516,15.513513513513516,16.513513513513516,16.513513513513516,17.513513513513516,17.513513513513516,15.513513513513516,13.513513513513516,11.513513513513516,9.513513513513516,8.513513513513516,6.513513513513516,5.513513513513516,4.513513513513516,4.513513513513516,3.513513513513516,2.513513513513516,2.513513513513516,-1.4864864864864842,-5.486486486486484,-6.486486486486484,-8.486486486486484,-9.486486486486484,-10.486486486486484,-9.486486486486484,-6.486486486486484,-4.486486486486484,-2.486486486486484,-0.4864864864864842,0.1756756756756772,3.175675675675677,3.175675675675677,2.175675675675677,1.1756756756756772,0.1756756756756772,-0.8243243243243228,-2.824324324324323,-6.824324324324323,-8.824324324324323,-9.824324324324323,-10.824324324324323,-10.824324324324323,-9.824324324324323,-6.824324324324323,-4.824324324324323,-2.824324324324323,-1.8243243243243228,0.1756756756756772,1.1756756756756772,1.1756756756756772,1.1756756756756772,0.1756756756756772,0.1756756756756772,-1.8243243243243228,-6.824324324324323,-8.824324324324323,-9.824324324324323,-9.824324324324323,-10.824324324324323,-7.824324324324323,-5.824324324324323,-4.824324324324323,-2.824324324324323,-0.8243243243243228,0.1756756756756772,1.1756756756756772,1.1756756756756772,3.175675675675677,3.175675675675677,4.175675675675677,5.175675675675677,5.175675675675677,6.175675675675677,10.175675675675677,13.175675675675677,14.175675675675677,15.175675675675677,16.175675675675677,16.175675675675677,15.175675675675677,13.175675675675677,12.175675675675677,9.175675675675677,7.175675675675677,6.175675675675677,5.175675675675677,4.175675675675677,3.175675675675677,2.175675675675677,2.175675675675677,1.1756756756756772,1.1756756756756772,-2.824324324324323,-5.824324324324323,-7.824324324324323,-8.824324324324323,-9.824324324324323,-9.824324324324323,-7.824324324324323,-5.824324324324323,-3.824324324324323,-1.8243243243243228,0.1756756756756772
7.331901367694285,7.302097569979242,7.446646641114728,7.404877856763364,-14.928133333651646,-14.86745130848377,10.122358902687626,9.731378803827647,3,3,1.0674319255966058,1.0480564531145817,-0.0017990092491888619,-0.0015054470704509296,5.740415214167569,5.733739931505071,57.64132398221672,56.595048468187414,50,45,6,-4.345454545454544,-2.345454545454544,-1.345454545454544,-0.3454545454545439,0.6545454545454561,2.654545454545456,7.654545454545456,9.654545454545456,10.654545454545456,12.654545454545456,13.654545454545456,12.654545454545456,11.654545454545456,9.654545454545456,6.654545454545456,3.654545454545456,2.654545454545456,1.654545454545456,1.654545454545456,-0.3454545454545439,-1.345454545454544,-2.345454545454544,-3.345454545454544,-4.345454545454544,-7.345454545454544,-11.345454545454544,-13.345454545454544,-15.345454545454544,-17.345454545454544,-17.345454545454544,-17.345454545454544,-13.345454545454544,-12.345454545454544,-10.345454545454544,-7.345454545454544,-6.345454545454544,-6.345454545454544,-5.345454545454544,-4.345454545454544,-3.345454545454544,-3.345454545454544,-2.345454545454544,-1.345454545454544,-0.3454545454545439,3.654545454545456,6.654545454545456,8.654545454545456,9.654545454545456,11.654545454545456,11.654545454545456,10.654545454545456,9.654545454545456,7.654545454545456,4.654545454545456,3.654545454545456,-3.636363636363633,-0.6363636363636331,-0.6363636363636331,0.36363636363636687,1.3636363636363669,5.363636363636367,8.363636363636367,10.363636363636367,11.363636363636367,12.363636363636367,12.363636363636367,11.363636363636367,10.363636363636367,8.363636363636367,5.363636363636367,3.363636363636367,2.363636363636367,1.3636363636363669,-0.6363636363636331,-0.6363636363636331,-1.6363636363636331,-2.636363636363633,-3.636363636363633,-4.636363636363633,-8.636363636363633,-11.636363636363633,-15.636363636363633,-16.636363636363633,-17.636363636363633,-17.636363636363633,-15.636363636363633,-12.636363636363633,-11.636363636363633,-8.636363636363633,-7.636363636363633,-6.636363636363633,-5.636363636363633,-4.636363636363633,-3.636363636363633,-2.636363636363633,-2.636363636363633,-1.6363636363636331,-0.6363636363636331,0.36363636363636687,5.363636363636367,7.363636363636367,9.363636363636367,9.363636363636367,11.363636363636367,11.363636363636367,10.363636363636367,9.363636363636367,6.363636363636367,3.363636363636367,2.363636363636367
6.968200595170734,6.55729945457052,7.086283324422875,6.694958049170532,-11.764400132893277,-10.901625531993048,12.72036017532418,12.296286630466554,2,3,1.0568009442183892,1.0244878290662367,0.004410959916421228,0.004207724561910352,5.770536987832423,5.4181612851226095,57.06725098779302,55.322342769576785,51,51,7,10.654545454545456,9.654545454545456,6.654545454545456,5.654545454545456,3.654545454545456,2.654545454545456,1.654545454545456,1.654545454545456,0.6545454545454561,-0.3454545454545439,-1.345454545454544,-2.345454545454544,-7.345454545454544,-10.345454545454544,-12.345454545454544,-14.345454545454544,-14.345454545454544,-14.345454545454544,-12.345454545454544,-9.345454545454544,-7.345454545454544,-5.345454545454544,-4.345454545454544,-2.345454545454544,-1.345454545454544,-1.345454545454544,0.6545454545454561,1.654545454545456,1.654545454545456,2.654545454545456,3.654545454545456,4.654545454545456,10.654545454545456,12.654545454545456,14.654545454545456,14.654545454545456,15.654545454545456,14.654545454545456,12.654545454545456,10.654545454545456,7.654545454545456,5.654545454545456,4.654545454545456,3.654545454545456,1.654545454545456,0.6545454545454561,-0.3454545454545439,-1.345454545454544,-1.345454545454544,-2.345454545454544,-6.345454545454544,-11.345454545454544,-13.345454545454544,-15.345454545454544,-15.345454545454544,10.163636363636364,9.163636363636364,6.163636363636364,5.163636363636364,4.163636363636364,3.163636363636364,2.163636363636364,1.163636363636364,0.16363636363636402,-0.836363636363636,-1.836363636363636,-1.836363636363636,-7.836363636363636,-10.836363636363636,-11.836363636363636,-12.836363636363636,-13.836363636363636,-13.836363636363636,-10.836363636363636,-7.836363636363636,-5.836363636363636,-3.836363636363636,-2.836363636363636,-1.836363636363636,-0.836363636363636,0.16363636363636402,1.163636363636364,1.163636363636364,3.163636363636364,2.163636363636364,4.163636363636364,7.163636363636364,11.163636363636364,13.163636363636364,13.163636363636364,14.163636363636364,14.163636363636364,14.163636363636364,12.163636363636364,10.163636363636364,7.163636363636364,4.163636363636364,3.163636363636364,2.163636363636364,1.163636363636364,0.16363636363636402,-1.836363636363636,-1.836363636363636,-2.836363636363636,-3.836363636363636,-7.836363636363636,-10.836363636363636,-13.836363636363636,-13.836363636363636,-14.836363636363636
4.035082169404642,3.9579257353191672,4.120324231152185,4.035713754702627,-8.933579604719752,-8.788596478739668,4.796445387237763,4.481407131874251,3,3,0.6201102539393613,0.6071361012258071,0.004603942657262653,0.0048323553162276265,3.1463279330216842,3.0854456621947683,35.346284474543594,34.606757769871,52,52,1,11.120689655172413,11.120689655172413,11.120689655172413,-1.8793103448275872,-2.879310344827587,-3.879310344827587,-3.879310344827587,-2.879310344827587,-2.879310344827587,-0.8793103448275872,-0.8793103448275872,0.12068965517241281,0.12068965517241281,0.12068965517241281,1.1206896551724128,1.1206896551724128,1.1206896551724128,1.1206896551724128,3.120689655172413,5.120689655172413,5.120689655172413,6.120689655172413,6.120689655172413,5.120689655172413,5.120689655172413,3.120689655172413,2.120689655172413,1.1206896551724128,0.12068965517241281,0.12068965517241281,-0.8793103448275872,-1.8793103448275872,-2.879310344827587,-4.879310344827587,-6.879310344827587,-7.879310344827587,-8.879310344827587,-9.879310344827587,-9.879310344827587,-8.879310344827587,-7.879310344827587,-6.879310344827587,-6.879310344827587,-5.879310344827587,-4.879310344827587,-4.879310344827587,-3.879310344827587,-3.879310344827587,-2.879310344827587,-0.8793103448275872,2.120689655172413,4.120689655172413,6.120689655172413,7.120689655172413,8.120689655172413,8.120689655172413,8.120689655172413,7.120689655172413,11.672413793103459,11.672413793103459,11.672413793103459,-2.327586206896541,-2.327586206896541,-3.327586206896541,-3.327586206896541,-2.327586206896541,-2.327586206896541,-1.327586206896541,-0.32758620689654094,-0.32758620689654094,0.6724137931034591,0.6724137931034591,0.6724137931034591,0.6724137931034591,1.672413793103459,1.672413793103459,3.672413793103459,4.672413793103459,5.672413793103459,5.672413793103459,5.672413793103459,4.672413793103459,3.672413793103459,2.672413793103459,1.672413793103459,0.6724137931034591,0.6724137931034591,-0.32758620689654094,-2.327586206896541,-2.327586206896541,-3.327586206896541,-4.327586206896541,-7.327586206896541,-8.327586206896541,-9.327586206896541,-10.327586206896541,-9.327586206896541,-8.327586206896541,-7.327586206896541,-6.327586206896541,-6.327586206896541,-5.327586206896541,-5.327586206896541,-4.327586206896541,-3.327586206896541,-3.327586206896541,-2.327586206896541,-0.32758620689654094,1.672413793103459,3.672413793103459,5.672413793103459,6.672413793103459,7.672413793103459,7.672413793103459,7.672413793103459,6.672413793103459
9.270761517310037,4.464212645615398,9.534542250406181,4.87275313262216,-24.752106174079426,-6.976744674357109,11.626251527812595,7.022088807397812,5,3,1.424419779368919,0.703582707301745,-0.07943028252751122,-0.0025030952636766867,6.543793955757088,4.26773299174633,91.16286587961082,45.02929326731168,61,53,2,-191.86153846153846,-3.8615384615384585,-5.8615384615384585,-5.8615384615384585,-5.8615384615384585,-4.8615384615384585,-3.8615384615384585,-1.8615384615384585,-0.8615384615384585,-0.8615384615384585,-0.8615384615384585,-1.8615384615384585,-3.8615384615384585,-4.8615384615384585,-5.8615384615384585,-5.8615384615384585,-5.8615384615384585,-4.8615384615384585,-3.8615384615384585,-2.8615384615384585,-1.8615384615384585,-0.8615384615384585,-0.8615384615384585,0.13846153846154152,0.13846153846154152,0.13846153846154152,1.1384615384615415,3.1384615384615415,8.138461538461542,8.138461538461542,10.138461538461542,13.138461538461542,11.138461538461542,12.138461538461542,11.138461538461542,9.138461538461542,8.138461538461542,7.1384615384615415,6.1384615384615415,5.1384615384615415,5.1384615384615415,3.1384615384615415,3.1384615384615415,1.1384615384615415,-1.8615384615384585,-2.8615384615384585,-4.8615384615384585,-4.8615384615384585,-4.8615384615384585,-3.8615384615384585,-1.8615384615384585,0.13846153846154152,2.1384615384615415,3.1384615384615415,5.1384615384615415,6.1384615384615415,8.138461538461542,10.138461538461542,12.138461538461542,13.138461538461542,16.13846153846154,19.13846153846154,22.13846153846154,24.13846153846154,26.13846153846154,-6.046153846153857,-8.046153846153857,-9.046153846153857,-9.046153846153857,-9.046153846153857,-7.046153846153857,-7.046153846153857,-5.046153846153857,-4.046153846153857,-3.0461538461538566,-4.046153846153857,-5.046153846153857,-7.046153846153857,-9.046153846153857,-9.046153846153857,-9.046153846153857,-8.046153846153857,-7.046153846153857,-6.046153846153857,-5.046153846153857,-4.046153846153857,-4.046153846153857,-3.0461538461538566,-3.0461538461538566,-2.0461538461538566,-2.0461538461538566,-1.0461538461538566,0.9538461538461434,3.9538461538461434,5.953846153846143,7.953846153846143,8.953846153846143,8.953846153846143,7.953846153846143,6.953846153846143,4.953846153846143,3.9538461538461434,3.9538461538461434,2.9538461538461434,1.9538461538461434,-0.04615384615385665,-0.04615384615385665,-1.0461538461538566,-2.0461538461538566,-5.046153846153857,-6.046153846153857,-7.046153846153857,-8.046153846153857,-8.046153846153857,-6.046153846153857,-5.046153846153857,-2.0461538461538566,-0.04615384615385665,0.9538461538461434,2.9538461538461434,3.9538461538461434,5.953846153846143,7.953846153846143,8.953846153846143,10.953846153846143,12.953846153846143,16.953846153846143,19.953846153846143,21.953846153846143,23.953846153846143
7.8132332023599105,5.583039378113678,7.818945357010051,5.583339237140642,-18.51734178325498,-11.656567755811713,13.095654068936454,7.63791821301122,3,4,1.182243085424109,0.5646204187207678,-0.07966872942047278,0.00221488900240093,6.226339825726238,4.334828808971868,93.39720374850462,44.60501307894066,77,67,3,-192.4375,7.5625,8.5625,9.5625,10.5625,10.5625,10.5625,11.5625,10.5625,9.5625,7.5625,6.5625,6.5625,7.5625,7.5625,7.5625,8.5625,9.5625,10.5625,10.5625,10.5625,11.5625,10.5625,9.5625,7.5625,-2.4375,-1.4375,-1.4375,-0.4375,-0.4375,-0.4375,1.5625,3.5625,4.5625,4.5625,5.5625,5.5625,5.5625,4.5625,3.5625,2.5625,1.5625,0.5625,0.5625,-0.4375,-1.4375,-2.4375,-3.4375,-5.4375,-7.4375,-8.4375,-9.4375,-10.4375,-9.4375,-8.4375,-7.4375,-6.4375,-6.4375,-5.4375,-6.4375,-5.4375,-4.4375,-3.4375,-2.4375,-0.4375,1.5625,2.5625,4.5625,5.5625,5.5625,5.5625,4.5625,3.5625,3.5625,2.5625,2.5625,1.5625,1.5625,1.5625,1.5625,5.349999999999994,6.349999999999994,6.349999999999994,7.349999999999994,8.349999999999994,8.349999999999994,8.349999999999994,7.349999999999994,7.349999999999994,6.349999999999994,5.349999999999994,5.349999999999994,5.349999999999994,5.349999999999994,5.349999999999994,6.349999999999994,6.349999999999994,7.349999999999994,8.349999999999994,8.349999999999994,8.349999999999994,7.349999999999994,7.349999999999994,6.349999999999994,5.349999999999994,-5.650000000000006,-3.6500000000000057,-3.6500000000000057,-2.6500000000000057,-2.6500000000000057,-2.6500000000000057,-0.6500000000000057,0.3499999999999943,1.3499999999999943,2.3499999999999943,2.3499999999999943,2.3499999999999943,2.3499999999999943,1.3499999999999943,0.3499999999999943,-0.6500000000000057,-1.6500000000000057,-2.6500000000000057,-2.6500000000000057,-3.6500000000000057,-4.650000000000006,-4.650000000000006,-6.650000000000006,-8.650000000000006,-11.650000000000006,-11.650000000000006,-12.650000000000006,-11.650000000000006,-10.650000000000006,-10.650000000000006,-9.650000000000006,-9.650000000000006,-8.650000000000006,-8.650000000000006,-7.650000000000006,-6.650000000000006,-6.650000000000006,-5.650000000000006,-4.650000000000006,-2.6500000000000057,0.3499999999999943,1.3499999999999943,2.3499999999999943,3.3499999999999943,3.3499999999999943,3.3499999999999943,1.3499999999999943,1.3499999999999943,0.3499999999999943,0.3499999999999943,0.3499999999999943,-0.6500000000000057,-0.6500000000000057,-0.6500000000000057,-1.6500000000000057
6.037204981359917,6.3586043126315115,6.071494094911802,6.3882078185790565,-9.484328869054544,-10.146261983669064,9.642264202804329,9.712289642124757,3,3,0.5852813849082557,0.5881279466203218,-0.0035317602415115804,-0.004047979900545834,5.1336763313192835,5.380046907470074,46.82251079266045,47.05023572962574,73,74,4,-8.53086419753086,-9.53086419753086,-8.53086419753086,-8.53086419753086,-8.53086419753086,-8.53086419753086,-7.53086419753086,-7.53086419753086,-8.53086419753086,-9.53086419753086,-9.53086419753086,-9.53086419753086,-6.53086419753086,-8.53086419753086,-8.53086419753086,-9.53086419753086,-8.53086419753086,-8.53086419753086,-8.53086419753086,-8.53086419753086,-7.53086419753086,-7.53086419753086,-8.53086419753086,-9.53086419753086,-9.53086419753086,-9.53086419753086,-1.5308641975308603,-0.5308641975308603,-0.5308641975308603,0.46913580246913966,1.4691358024691397,1.4691358024691397,2.4691358024691397,4.46913580246914,5.46913580246914,7.46913580246914,7.46913580246914,7.46913580246914,7.46913580246914,6.46913580246914,6.46913580246914,5.46913580246914,5.46913580246914,5.46913580246914,4.46913580246914,4.46913580246914,4.46913580246914,3.4691358024691397,1.4691358024691397,0.46913580246913966,-1.5308641975308603,-2.5308641975308603,-3.5308641975308603,-2.5308641975308603,-2.5308641975308603,-0.5308641975308603,0.46913580246913966,1.4691358024691397,1.4691358024691397,2.4691358024691397,3.4691358024691397,3.4691358024691397,4.46913580246914,4.46913580246914,5.46913580246914,6.46913580246914,8.46913580246914,9.46913580246914,9.46913580246914,10.46913580246914,10.46913580246914,10.46913580246914,8.46913580246914,7.46913580246914,7.46913580246914,6.46913580246914,5.46913580246914,5.46913580246914,4.46913580246914,4.46913580246914,3.4691358024691397,-9.777777777777771,-9.777777777777771,-9.777777777777771,-8.777777777777771,-8.777777777777771,-8.777777777777771,-8.777777777777771,-8.777777777777771,-9.777777777777771,-9.777777777777771,-9.777777777777771,-8.777777777777771,-7.7777777777777715,-8.777777777777771,-9.777777777777771,-9.777777777777771,-9.777777777777771,-8.777777777777771,-8.777777777777771,-8.777777777777771,-8.777777777777771,-8.777777777777771,-9.777777777777771,-9.777777777777771,-9.777777777777771,-8.777777777777771,-0.7777777777777715,0.22222222222222854,0.22222222222222854,1.2222222222222285,1.2222222222222285,2.2222222222222285,3.2222222222222285,4.2222222222222285,6.2222222222222285,6.2222222222222285,8.222222222222229,8.222222222222229,7.2222222222222285,7.2222222222222285,6.2222222222222285,5.2222222222222285,5.2222222222222285,5.2222222222222285,4.2222222222222285,3.2222222222222285,4.2222222222222285,3.2222222222222285,1.2222222222222285,1.2222222222222285,-0.7777777777777715,-1.7777777777777715,-2.7777777777777715,-1.7777777777777715,-0.7777777777777715,0.22222222222222854,1.2222222222222285,2.2222222222222285,2.2222222222222285,4.2222222222222285,4.2222222222222285,4.2222222222222285,4.2222222222222285,5.2222222222222285,6.2222222222222285,7.2222222222222285,9.222222222222229,10.222222222222229,10.222222222222229,10.222222222222229,10.222222222222229,10.222222222222229,8.222222222222229,7.2222222222222285,7.2222222222222285,6.2222222222222285,6.2222222222222285,5.2222222222222285,4.2222222222222285,3.2222222222222285,3.2222222222222285
3.8134397829361553,3.6547594617854053,3.964379071936687,3.8131032278319963,-6.691743100431262,-5.915645330583017,6.823730653796759,6.814784794940661,3,3,0.5198806983118096,0.48900414345690796,0.002199028042194391,0.0024087153127214877,3.364886921317428,3.2384753530478556,39.51093307169753,37.164314902725,69,67,5,5.3116883116883,4.3116883116883,3.3116883116883002,3.3116883116883002,2.3116883116883002,2.3116883116883002,1.3116883116883002,-0.6883116883116998,10.3116883116883,10.3116883116883,9.3116883116883,9.3116883116883,7.3116883116883,6.3116883116883,5.3116883116883,4.3116883116883,3.3116883116883002,3.3116883116883002,2.3116883116883002,2.3116883116883002,1.3116883116883002,-0.6883116883116998,3.3116883116883002,6.3116883116883,7.3116883116883,7.3116883116883,8.3116883116883,7.3116883116883,6.3116883116883,5.3116883116883,4.3116883116883,4.3116883116883,2.3116883116883002,2.3116883116883002,1.3116883116883002,0.31168831168830025,0.31168831168830025,-1.6883116883116998,-3.6883116883116998,-5.6883116883117,-6.6883116883117,-6.6883116883117,-7.6883116883117,-6.6883116883117,-6.6883116883117,-5.6883116883117,-3.6883116883116998,-3.6883116883116998,-2.6883116883116998,-2.6883116883116998,-2.6883116883116998,-1.6883116883116998,-1.6883116883116998,-1.6883116883116998,-0.6883116883116998,1.3116883116883002,1.3116883116883002,2.3116883116883002,2.3116883116883002,2.3116883116883002,2.3116883116883002,1.3116883116883002,-0.6883116883116998,-1.6883116883116998,-2.6883116883116998,-3.6883116883116998,-3.6883116883116998,-4.6883116883117,-5.6883116883117,-5.6883116883117,-6.6883116883117,-9.6883116883117,-10.6883116883117,-11.6883116883117,-11.6883116883117,-12.6883116883117,-11.6883116883117,5.818181818181813,4.818181818181813,3.818181818181813,2.818181818181813,2.818181818181813,1.818181818181813,0.818181818181813,-1.181818181818187,10.818181818181813,10.818181818181813,9.818181818181813,8.818181818181813,6.818181818181813,5.818181818181813,5.818181818181813,4.818181818181813,3.818181818181813,2.818181818181813,2.818181818181813,1.818181818181813,0.818181818181813,-1.181818181818187,4.818181818181813,6.818181818181813,6.818181818181813,7.818181818181813,7.818181818181813,6.818181818181813,5.818181818181813,4.818181818181813,3.818181818181813,2.818181818181813,1.818181818181813,1.818181818181813,0.818181818181813,-0.18181818181818699,-0.18181818181818699,-1.181818181818187,-3.181818181818187,-5.181818181818187,-6.181818181818187,-7.181818181818187,-6.181818181818187,-6.181818181818187,-5.181818181818187,-4.181818181818187,-3.181818181818187,-3.181818181818187,-3.181818181818187,-2.181818181818187,-2.181818181818187,-2.181818181818187,-2.181818181818187,-1.181818181818187,-0.18181818181818699,0.818181818181813,1.818181818181813,2.818181818181813,2.818181818181813,1.818181818181813,1.818181818181813,-0.18181818181818699,-1.181818181818187,-2.181818181818187,-2.181818181818187,-4.181818181818187,-4.181818181818187,-5.181818181818187,-6.181818181818187,-6.181818181818187,-7.181818181818187,-9.181818181818187,-11.181818181818187,-11.181818181818187,-12.181818181818187,-12.181818181818187,-11.181818181818187
2.6893038594183145,2.572592596698241,2.6900024327880665,2.5771531194768063,-5.510965148288327,-5.100992189940925,3.2347533229931345,3.050474671582088,3,3,0.419337369181323,0.38129486138112056,0.001899215569815755,0.002142439362135486,2.2163510508181625,2.1303023481020458,33.12765216532452,30.122294049108525,63,63,6,4.587500000000006,3.5875000000000057,1.5875000000000057,-0.4124999999999943,-1.4124999999999943,-2.4124999999999943,-1.4124999999999943,0.5875000000000057,0.5875000000000057,1.5875000000000057,1.5875000000000057,6.587500000000006,6.587500000000006,5.587500000000006,4.587500000000006,3.5875000000000057,1.5875000000000057,-0.4124999999999943,-1.4124999999999943,-2.4124999999999943,-1.4124999999999943,0.5875000000000057,0.5875000000000057,1.5875000000000057,1.5875000000000057,6.587500000000006,6.587500000000006,5.587500000000006,4.587500000000006,3.5875000000000057,2.5875000000000057,2.5875000000000057,1.5875000000000057,0.5875000000000057,0.5875000000000057,-1.4124999999999943,-3.4124999999999943,-5.412499999999994,-6.412499999999994,-6.412499999999994,-6.412499999999994,-5.412499999999994,-5.412499999999994,-4.412499999999994,-3.4124999999999943,-2.4124999999999943,-2.4124999999999943,-2.4124999999999943,-1.4124999999999943,-1.4124999999999943,-0.4124999999999943,-0.4124999999999943,0.5875000000000057,1.5875000000000057,3.5875000000000057,3.5875000000000057,3.5875000000000057,3.5875000000000057,2.5875000000000057,1.5875000000000057,-0.4124999999999943,-1.4124999999999943,-2.4124999999999943,-3.4124999999999943,-3.4124999999999943,-3.4124999999999943,-3.4124999999999943,-3.4124999999999943,-4.412499999999994,-6.412499999999994,-5.412499999999994,-5.412499999999994,-4.412499999999994,-3.4124999999999943,-1.4124999999999943,0.5875000000000057,2.5875000000000057,4.587500000000006,5.587500000000006,6.587500000000006,5.175000000000011,2.1750000000000114,1.1750000000000114,0.17500000000001137,-0.8249999999999886,-1.8249999999999886,-0.8249999999999886,0.17500000000001137,1.1750000000000114,2.1750000000000114,2.1750000000000114,6.175000000000011,6.175000000000011,5.175000000000011,5.175000000000011,2.1750000000000114,1.1750000000000114,0.17500000000001137,-0.8249999999999886,-1.8249999999999886,-0.8249999999999886,0.17500000000001137,1.1750000000000114,2.1750000000000114,2.1750000000000114,6.175000000000011,6.175000000000011,4.175000000000011,3.1750000000000114,3.1750000000000114,1.1750000000000114,1.1750000000000114,1.1750000000000114,0.17500000000001137,-0.8249999999999886,-0.8249999999999886,-3.8249999999999886,-4.824999999999989,-5.824999999999989,-6.824999999999989,-5.824999999999989,-4.824999999999989,-4.824999999999989,-3.8249999999999886,-2.8249999999999886,-2.8249999999999886,-1.8249999999999886,-1.8249999999999886,-1.8249999999999886,-0.8249999999999886,-1.8249999999999886,-0.8249999999999886,1.1750000000000114,2.1750000000000114,3.1750000000000114,4.175000000000011,3.1750000000000114,3.1750000000000114,2.1750000000000114,0.17500000000001137,-0.8249999999999886,-2.8249999999999886,-2.8249999999999886,-3.8249999999999886,-3.8249999999999886,-3.8249999999999886,-3.8249999999999886,-3.8249999999999886,-4.824999999999989,-5.824999999999989,-5.824999999999989,-4.824999999999989,-3.8249999999999886,-1.8249999999999886,0.17500000000001137,1.1750000000000114,3.1750000000000114,5.175000000000011,6.175000000000011,8.175000000000011
3.1138440914410275,2.90657704655182,3.1743999097978226,2.9630681355840722,-6.031529481923056,-5.858385691736758,5.9343012521276615,5.382683503258506,6,6,0.5125050878054079,0.47170296093554914,-0.0010119949751364644,-0.0007411074312868024,2.379296274606854,2.2136390681236957,41.00040702443263,37.73623687484393,67,62,7,-2.444444444444457,-3.444444444444457,-1.444444444444457,-1.444444444444457,-0.4444444444444571,0.5555555555555429,0.5555555555555429,1.555555555555543,1.555555555555543,1.555555555555543,2.555555555555543,2.555555555555543,-1.444444444444457,-1.444444444444457,-2.444444444444457,-3.444444444444457,-1.444444444444457,-1.444444444444457,-0.4444444444444571,0.5555555555555429,0.5555555555555429,1.555555555555543,1.555555555555543,1.555555555555543,2.555555555555543,2.555555555555543,6.555555555555543,7.555555555555543,7.555555555555543,6.555555555555543,5.555555555555543,4.555555555555543,3.555555555555543,2.555555555555543,1.555555555555543,1.555555555555543,0.5555555555555429,-0.4444444444444571,-1.444444444444457,-2.444444444444457,-4.444444444444457,-5.444444444444457,-6.444444444444457,-7.444444444444457,-6.444444444444457,-5.444444444444457,-4.444444444444457,-4.444444444444457,-3.444444444444457,-1.444444444444457,-1.444444444444457,-1.444444444444457,-0.4444444444444571,0.5555555555555429,0.5555555555555429,1.555555555555543,2.555555555555543,4.555555555555543,5.555555555555543,6.555555555555543,7.555555555555543,6.555555555555543,6.555555555555543,5.555555555555543,4.555555555555543,3.555555555555543,2.555555555555543,1.555555555555543,0.5555555555555429,0.5555555555555429,-0.4444444444444571,-1.444444444444457,-2.444444444444457,-4.444444444444457,-6.444444444444457,-5.444444444444457,-7.444444444444457,-7.444444444444457,-6.444444444444457,-6.444444444444457,-4.444444444444457,-1.790123456790127,-1.790123456790127,-0.790123456790127,-0.790123456790127,0.20987654320987303,0.20987654320987303,1.209876543209873,1.209876543209873,2.209876543209873,2.209876543209873,2.209876543209873,3.209876543209873,-1.790123456790127,-1.790123456790127,-1.790123456790127,-1.790123456790127,-0.790123456790127,-0.790123456790127,0.20987654320987303,0.20987654320987303,1.209876543209873,1.209876543209873,2.209876543209873,2.209876543209873,2.209876543209873,3.209876543209873,6.209876543209873,7.209876543209873,7.209876543209873,6.209876543209873,4.209876543209873,3.209876543209873,3.209876543209873,2.209876543209873,1.209876543209873,0.20987654320987303,0.20987654320987303,-0.790123456790127,-0.790123456790127,-2.790123456790127,-4.790123456790127,-5.790123456790127,-6.790123456790127,-6.790123456790127,-5.790123456790127,-5.790123456790127,-4.790123456790127,-3.790123456790127,-2.790123456790127,-1.790123456790127,-1.790123456790127,-0.790123456790127,-0.790123456790127,0.20987654320987303,1.209876543209873,0.20987654320987303,3.209876543209873,4.209876543209873,6.209876543209873,6.209876543209873,6.209876543209873,6.209876543209873,6.209876543209873,4.209876543209873,3.209876543209873,2.209876543209873,2.209876543209873,1.209876543209873,0.20987654320987303,0.20987654320987303,-0.790123456790127,-0.790123456790127,-1.790123456790127,-4.790123456790127,-5.790123456790127,-6.790123456790127,-7.790123456790127,-6.790123456790127,-5.790123456790127,-4.790123456790127,-3.790123456790127
4.978620735639946,3.481029923185155,5.226975137276915,3.749678905773642,-11.11233480137848,-6.319906353439541,8.371867977090481,5.658043539240779,3,3,0.8122990414407388,0.5414401810417063,-0.04161553984503213,-0.00053061708363429,4.378276702181964,3.1211770332472404,56.86093290085172,37.90081267291944,65,59,1,-100.52112676056338,-0.5211267605633765,3.4788732394366235,2.4788732394366235,2.4788732394366235,0.4788732394366235,-1.5211267605633765,-3.5211267605633765,-4.5211267605633765,-5.5211267605633765,-5.5211267605633765,-4.5211267605633765,-3.5211267605633765,-2.5211267605633765,-0.5211267605633765,-0.5211267605633765,-5.5211267605633765,-5.5211267605633765,-6.5211267605633765,-7.5211267605633765,-6.5211267605633765,-4.5211267605633765,-3.5211267605633765,-1.5211267605633765,-1.5211267605633765,-0.5211267605633765,0.4788732394366235,0.4788732394366235,1.4788732394366235,2.4788732394366235,3.4788732394366235,2.4788732394366235,5.4788732394366235,7.4788732394366235,8.478873239436624,9.478873239436624,9.478873239436624,8.478873239436624,7.4788732394366235,6.4788732394366235,5.4788732394366235,4.4788732394366235,3.4788732394366235,2.4788732394366235,1.4788732394366235,1.4788732394366235,0.4788732394366235,0.4788732394366235,-1.5211267605633765,-2.5211267605633765,-4.5211267605633765,-6.5211267605633765,-6.5211267605633765,-6.5211267605633765,-7.5211267605633765,-4.5211267605633765,-3.5211267605633765,-1.5211267605633765,-0.5211267605633765,0.4788732394366235,1.4788732394366235,3.4788732394366235,3.4788732394366235,5.4788732394366235,7.4788732394366235,9.478873239436624,13.478873239436624,15.478873239436624,18.478873239436624,19.478873239436624,21.478873239436624,-1.2816901408450718,-1.2816901408450718,0.7183098591549282,0.7183098591549282,-0.2816901408450718,-0.2816901408450718,-3.281690140845072,-5.281690140845072,-5.281690140845072,-6.281690140845072,-6.281690140845072,-5.281690140845072,-4.281690140845072,-3.281690140845072,-1.2816901408450718,-1.2816901408450718,-7.281690140845072,-7.281690140845072,-7.281690140845072,-7.281690140845072,-6.281690140845072,-6.281690140845072,-4.281690140845072,-3.281690140845072,-2.281690140845072,-2.281690140845072,-1.2816901408450718,-0.2816901408450718,0.7183098591549282,0.7183098591549282,0.7183098591549282,0.7183098591549282,3.718309859154928,5.718309859154928,6.718309859154928,6.718309859154928,6.718309859154928,6.718309859154928,5.718309859154928,4.718309859154928,2.718309859154928,1.7183098591549282,0.7183098591549282,0.7183098591549282,-0.2816901408450718,-0.2816901408450718,-1.2816901408450718,-1.2816901408450718,-2.281690140845072,-4.281690140845072,-6.281690140845072,-8.281690140845072,-7.281690140845072,-7.281690140845072,-7.281690140845072,-5.281690140845072,-4.281690140845072,-2.281690140845072,-1.2816901408450718,-0.2816901408450718,0.7183098591549282,0.7183098591549282,3.718309859154928,4.718309859154928,6.718309859154928,7.718309859154928,10.718309859154928,14.718309859154928,15.718309859154928,17.718309859154928,19.718309859154928
2.2355225534613896,1.8032628894993277,2.413024266645954,2.092411871196956,-4.870994728503483,-4.479415062492705,2.9805519279331465,1.907220083687997,3,4,0.4214674611396188,0.35610975925859767,0.0010613401846679058,0.0,1.9446548199098275,1.6158045506995402,22.759242901539416,19.229926999964274,46,43,2,2.5636363636363626,2.5636363636363626,2.5636363636363626,1.5636363636363626,1.5636363636363626,0.5636363636363626,-2.4363636363636374,-3.4363636363636374,-4.436363636363637,-5.436363636363637,-5.436363636363637,-4.436363636363637,-3.4363636363636374,-3.4363636363636374,-1.4363636363636374,-0.4363636363636374,-1.4363636363636374,-1.4363636363636374,-0.4363636363636374,-0.4363636363636374,-0.4363636363636374,-0.4363636363636374,-0.4363636363636374,0.5636363636363626,3.5636363636363626,4.563636363636363,3.5636363636363626,4.563636363636363,3.5636363636363626,2.5636363636363626,1.5636363636363626,-0.4363636363636374,-1.4363636363636374,-2.4363636363636374,-2.4363636363636374,-2.4363636363636374,-2.4363636363636374,-2.4363636363636374,-2.4363636363636374,-3.4363636363636374,-5.436363636363637,-6.436363636363637,-5.436363636363637,-6.436363636363637,-5.436363636363637,-3.4363636363636374,-0.4363636363636374,1.5636363636363626,3.5636363636363626,5.563636363636363,6.563636363636363,7.563636363636363,9.563636363636363,10.563636363636363,11.563636363636363,0.0,2.0,2.0,1.0,1.0,1.0,-2.0,-4.0,-4.0,-5.0,-5.0,-4.0,-3.0,-2.0,-1.0,-1.0,-1.0,0.0,-1.0,-1.0,-1.0,-1.0,-1.0,1.0,2.0,3.0,3.0,4.0,2.0,2.0,-1.0,-1.0,-2.0,-2.0,-3.0,-3.0,-3.0,-3.0,-3.0,-4.0,-5.0,-6.0,-5.0,-5.0,-4.0,-1.0,1.0,3.0,5.0,6.0,7.0,9.0,10.0,11.0,12.0
2.8451920938914532,2.5168356419640006,3.282193629691504,3.0399035502326672,-7.381428550909624,-7.135241661066739,3.02428872101319,1.8571414289852939,4,4,0.5687735219702167,0.5016579524643222,0.0012269393624175107,0.0010312312432588912,2.526583893861718,2.2395525380275134,30.713770186391702,27.089529433073398,47,43,3,2.9636363636363683,2.9636363636363683,1.9636363636363683,-0.03636363636363171,-3.0363636363636317,-4.036363636363632,-5.036363636363632,-8.036363636363632,-5.036363636363632,-4.036363636363632,-4.036363636363632,-3.0363636363636317,-2.0363636363636317,-2.0363636363636317,-2.0363636363636317,-2.0363636363636317,-2.0363636363636317,-3.0363636363636317,-2.0363636363636317,-1.0363636363636317,0.9636363636363683,2.9636363636363683,3.9636363636363683,4.963636363636368,4.963636363636368,3.9636363636363683,2.9636363636363683,0.9636363636363683,-0.03636363636363171,-1.0363636363636317,-1.0363636363636317,-2.0363636363636317,-3.0363636363636317,-3.0363636363636317,-4.036363636363632,-4.036363636363632,-7.036363636363632,-9.036363636363632,-9.036363636363632,-9.036363636363632,-9.036363636363632,-7.036363636363632,-4.036363636363632,-2.0363636363636317,-0.03636363636363171,0.9636363636363683,2.9636363636363683,4.963636363636368,6.963636363636368,7.963636363636368,9.963636363636368,10.963636363636368,12.963636363636368,16.96363636363637,18.96363636363637,2.490909090909099,2.490909090909099,1.4909090909090992,-1.5090909090909008,-3.509090909090901,-4.509090909090901,-4.509090909090901,-5.509090909090901,-4.509090909090901,-2.509090909090901,-2.509090909090901,-1.5090909090909008,-2.509090909090901,-1.5090909090909008,-2.509090909090901,-2.509090909090901,-1.5090909090909008,-1.5090909090909008,-1.5090909090909008,-1.5090909090909008,1.4909090909090992,2.490909090909099,2.490909090909099,3.490909090909099,2.490909090909099,2.490909090909099,1.4909090909090992,0.4909090909090992,-0.5090909090909008,-1.5090909090909008,-2.509090909090901,-2.509090909090901,-3.509090909090901,-4.509090909090901,-5.509090909090901,-5.509090909090901,-7.509090909090901,-8.5090909090909,-8.5090909090909,-8.5090909090909,-7.509090909090901,-5.509090909090901,-3.509090909090901,-1.5090909090909008,0.4909090909090992,2.490909090909099,4.490909090909099,5.490909090909099,7.490909090909099,8.4909090909091,10.4909090909091,11.4909090909091,13.4909090909091,16.4909090909091,18.4909090909091
7.100351723499191,7.312744173721096,7.10320498810285,7.319152615245149,-13.591570877420622,-13.05982193350257,9.377482254886054,10.300785274728371,1,1,0.6443523006934484,0.6105846765233377,0.003431825065205574,0.0039002964233130085,5.963305035791587,6.213924325696456,48.32642255200863,45.79385073925033,66,68,4,8.28947368421052,8.28947368421052,9.28947368421052,9.28947368421052,10.28947368421052,12.28947368421052,14.28947368421052,4.28947368421052,5.28947368421052,6.28947368421052,7.28947368421052,7.28947368421052,8.28947368421052,8.28947368421052,8.28947368421052,8.28947368421052,9.28947368421052,9.28947368421052,10.28947368421052,12.28947368421052,14.28947368421052,-2.7105263157894797,-0.7105263157894797,0.28947368421052033,0.28947368421052033,0.28947368421052033,1.2894736842105203,1.2894736842105203,2.2894736842105203,2.2894736842105203,2.2894736842105203,3.2894736842105203,5.28947368421052,6.28947368421052,7.28947368421052,6.28947368421052,6.28947368421052,4.28947368421052,2.2894736842105203,0.28947368421052033,-0.7105263157894797,-2.7105263157894797,-3.7105263157894797,-3.7105263157894797,-4.71052631578948,-6.71052631578948,-7.71052631578948,-10.71052631578948,-12.71052631578948,-12.71052631578948,-14.71052631578948,-14.71052631578948,-12.71052631578948,-11.71052631578948,-10.71052631578948,-10.71052631578948,-9.71052631578948,-9.71052631578948,-10.71052631578948,-9.71052631578948,-8.71052631578948,-8.71052631578948,-8.71052631578948,-5.71052631578948,-3.7105263157894797,-2.7105263157894797,-1.7105263157894797,-1.7105263157894797,-0.7105263157894797,-1.7105263157894797,-2.7105263157894797,-3.7105263157894797,-2.7105263157894797,-1.7105263157894797,-1.7105263157894797,-1.7105263157894797,9.42105263157896,8.42105263157896,9.42105263157896,9.42105263157896,10.42105263157896,12.42105263157896,14.42105263157896,5.421052631578959,7.421052631578959,7.421052631578959,8.42105263157896,9.42105263157896,9.42105263157896,9.42105263157896,9.42105263157896,8.42105263157896,9.42105263157896,9.42105263157896,10.42105263157896,12.42105263157896,14.42105263157896,-1.5789473684210407,0.42105263157895934,1.4210526315789593,1.4210526315789593,1.4210526315789593,2.4210526315789593,1.4210526315789593,2.4210526315789593,1.4210526315789593,2.4210526315789593,4.421052631578959,5.421052631578959,5.421052631578959,6.421052631578959,5.421052631578959,4.421052631578959,3.4210526315789593,0.42105263157895934,-0.5789473684210407,-1.5789473684210407,-3.5789473684210407,-4.578947368421041,-4.578947368421041,-5.578947368421041,-6.578947368421041,-8.57894736842104,-10.57894736842104,-12.57894736842104,-12.57894736842104,-13.57894736842104,-13.57894736842104,-12.57894736842104,-11.57894736842104,-10.57894736842104,-10.57894736842104,-9.57894736842104,-9.57894736842104,-9.57894736842104,-9.57894736842104,-9.57894736842104,-8.57894736842104,-7.578947368421041,-6.578947368421041,-4.578947368421041,-4.578947368421041,-3.5789473684210407,-2.5789473684210407,-2.5789473684210407,-3.5789473684210407,-3.5789473684210407,-3.5789473684210407,-3.5789473684210407,-2.5789473684210407,-2.5789473684210407,-1.5789473684210407
292.9297382209354,3.2002605820059973,293.6739078779822,3.2187109069222495,-286.0047423222006,-5.649872688349693,749.0416290722513,5.824501421976662,1,3,40.602172084030066,0.5575006745162233,2.848975781239512,0.003530273380207434,221.46658530473297,2.6230892023604238,2192.5172925376237,30.10503642387606,54,49,5,6881.618181818182,-117.38181818181818,-117.38181818181818,-117.38181818181818,-118.38181818181818,-120.38181818181818,-122.38181818181818,-123.38181818181818,-124.38181818181818,-125.38181818181818,-126.38181818181818,-126.38181818181818,-127.38181818181818,-127.38181818181818,-129.38181818181818,-132.38181818181818,-134.38181818181818,-134.38181818181818,-135.38181818181818,-134.38181818181818,-133.38181818181818,-132.38181818181818,-130.38181818181818,-130.38181818181818,-129.38181818181818,-129.38181818181818,-129.38181818181818,-128.38181818181818,-128.38181818181818,-128.38181818181818,-127.38181818181818,-124.38181818181818,-123.38181818181818,-124.38181818181818,-122.38181818181818,-122.38181818181818,-123.38181818181818,-124.38181818181818,-126.38181818181818,-126.38181818181818,-127.38181818181818,-127.38181818181818,-127.38181818181818,-127.38181818181818,-128.38181818181818,-128.38181818181818,-128.38181818181818,-131.38181818181818,-132.38181818181818,-133.38181818181818,-133.38181818181818,-131.38181818181818,-130.38181818181818,-128.38181818181818,-127.38181818181818,8.527272727272731,9.527272727272731,9.527272727272731,8.527272727272731,6.527272727272731,5.527272727272731,3.527272727272731,2.527272727272731,2.527272727272731,1.527272727272731,1.527272727272731,0.5272727272727309,-0.4727272727272691,-0.4727272727272691,-2.472727272727269,-5.472727272727269,-6.472727272727269,-6.472727272727269,-7.472727272727269,-5.472727272727269,-4.472727272727269,-3.472727272727269,-2.472727272727269,-2.472727272727269,-1.472727272727269,-1.472727272727269,-1.472727272727269,-0.4727272727272691,-0.4727272727272691,-0.4727272727272691,-0.4727272727272691,1.527272727272731,2.527272727272731,2.527272727272731,3.527272727272731,3.527272727272731,2.527272727272731,2.527272727272731,0.5272727272727309,-0.4727272727272691,-0.4727272727272691,-0.4727272727272691,-0.4727272727272691,-1.472727272727269,-1.472727272727269,-0.4727272727272691,-1.472727272727269,-3.472727272727269,-4.472727272727269,-4.472727272727269,-3.472727272727269,-2.472727272727269,-1.472727272727269,-0.4727272727272691,1.527272727272731
3.091113631274494,3.121962445530314,3.1563187515164897,3.1974741937265625,-6.401648247274164,-6.2885852569067975,6.197186793358752,5.998482907513068,2,4,0.46498362584597774,0.4430321402446853,-0.002880971996465686,-0.002756205492681743,2.5055589443085595,2.551821450034753,33.4788210609104,31.89831409761734,62,58,6,-6.958904109589042,-7.958904109589042,-7.958904109589042,-8.958904109589042,4.041095890410958,2.0410958904109577,1.0410958904109577,1.0410958904109577,0.041095890410957736,-0.9589041095890423,-1.9589041095890423,-1.9589041095890423,-1.9589041095890423,-4.958904109589042,-6.958904109589042,-7.958904109589042,-7.958904109589042,-8.958904109589042,4.041095890410958,4.041095890410958,4.041095890410958,3.0410958904109577,3.0410958904109577,1.0410958904109577,-1.9589041095890423,-2.9589041095890423,-2.9589041095890423,-3.9589041095890423,-2.9589041095890423,-1.9589041095890423,0.041095890410957736,0.041095890410957736,0.041095890410957736,1.0410958904109577,1.0410958904109577,2.0410958904109577,2.0410958904109577,3.0410958904109577,3.0410958904109577,3.0410958904109577,5.041095890410958,7.041095890410958,7.041095890410958,8.041095890410958,8.041095890410958,7.041095890410958,6.041095890410958,4.041095890410958,2.0410958904109577,1.0410958904109577,0.041095890410957736,-0.9589041095890423,-1.9589041095890423,-2.9589041095890423,-1.9589041095890423,-2.9589041095890423,-5.958904109589042,-6.958904109589042,-7.958904109589042,-7.958904109589042,-6.958904109589042,-4.958904109589042,-2.9589041095890423,-0.9589041095890423,1.0410958904109577,2.0410958904109577,3.0410958904109577,4.041095890410958,6.041095890410958,6.041095890410958,8.041095890410958,9.041095890410958,10.041095890410958,-6.657534246575352,-7.657534246575352,-7.657534246575352,-7.657534246575352,2.342465753424648,1.3424657534246478,0.3424657534246478,-1.6575342465753522,-0.6575342465753522,-1.6575342465753522,-2.657534246575352,-2.657534246575352,-2.657534246575352,-4.657534246575352,-6.657534246575352,-7.657534246575352,-7.657534246575352,-7.657534246575352,3.342465753424648,4.342465753424648,2.342465753424648,3.342465753424648,3.342465753424648,0.3424657534246478,-1.6575342465753522,-2.657534246575352,-2.657534246575352,-3.657534246575352,-0.6575342465753522,-0.6575342465753522,0.3424657534246478,0.3424657534246478,1.3424657534246478,1.3424657534246478,1.3424657534246478,2.342465753424648,2.342465753424648,3.342465753424648,3.342465753424648,4.342465753424648,7.342465753424648,7.342465753424648,7.342465753424648,7.342465753424648,7.342465753424648,6.342465753424648,4.342465753424648,1.3424657534246478,1.3424657534246478,0.3424657534246478,-0.6575342465753522,-1.6575342465753522,-2.657534246575352,-2.657534246575352,-3.657534246575352,-3.657534246575352,-6.657534246575352,-6.657534246575352,-7.657534246575352,-7.657534246575352,-5.657534246575352,-3.657534246575352,-2.657534246575352,-1.6575342465753522,1.3424657534246478,2.342465753424648,3.342465753424648,4.342465753424648,6.342465753424648,7.342465753424648,8.342465753424648,8.342465753424648,11.342465753424648
30.02598753026975,29.808500010718074,30.149226136600596,29.936438106517638,-52.5738365011427,-51.927570871039805,35.017723361981595,34.26054195759142,1,1,2.138961256442387,2.095063664532709,-0.01868025859817305,-0.018545988994592293,26.327826406969795,26.238204573409824,156.14417172029425,152.93964751088777,71,70,7,-45.121621621621614,-45.121621621621614,-45.121621621621614,-45.121621621621614,-44.121621621621614,-46.121621621621614,-48.121621621621614,-49.121621621621614,-50.121621621621614,-49.121621621621614,-48.121621621621614,-47.121621621621614,-46.121621621621614,-45.121621621621614,-45.121621621621614,-45.121621621621614,-45.121621621621614,-45.121621621621614,-44.121621621621614,-33.121621621621614,-30.121621621621614,-27.121621621621614,-24.121621621621614,-20.121621621621614,-17.121621621621614,-13.121621621621614,-12.121621621621614,-9.121621621621614,-7.121621621621614,-4.121621621621614,-0.12162162162161394,3.878378378378386,7.878378378378386,10.878378378378386,14.878378378378386,17.878378378378386,20.878378378378386,22.878378378378386,24.878378378378386,25.878378378378386,27.878378378378386,28.878378378378386,29.878378378378386,32.878378378378386,35.878378378378386,34.878378378378386,36.878378378378386,36.878378378378386,35.878378378378386,34.878378378378386,32.878378378378386,30.878378378378386,29.878378378378386,28.878378378378386,27.878378378378386,26.878378378378386,25.878378378378386,25.878378378378386,23.878378378378386,21.878378378378386,19.878378378378386,18.878378378378386,18.878378378378386,17.878378378378386,19.878378378378386,20.878378378378386,21.878378378378386,23.878378378378386,24.878378378378386,24.878378378378386,25.878378378378386,25.878378378378386,25.878378378378386,26.878378378378386,-44.79729729729729,-44.79729729729729,-44.79729729729729,-44.79729729729729,-44.79729729729729,-46.79729729729729,-48.79729729729729,-48.79729729729729,-48.79729729729729,-47.79729729729729,-46.79729729729729,-45.79729729729729,-44.79729729729729,-44.79729729729729,-44.79729729729729,-44.79729729729729,-44.79729729729729,-44.79729729729729,-44.79729729729729,-33.79729729729729,-30.79729729729729,-27.79729729729729,-24.79729729729729,-21.79729729729729,-17.79729729729729,-13.797297297297291,-12.797297297297291,-9.797297297297291,-6.797297297297291,-2.797297297297291,0.20270270270270885,5.202702702702709,9.202702702702709,12.202702702702709,15.202702702702709,18.20270270270271,20.20270270270271,22.20270270270271,24.20270270270271,26.20270270270271,28.20270270270271,29.20270270270271,31.20270270270271,33.20270270270271,35.20270270270271,35.20270270270271,36.20270270270271,35.20270270270271,35.20270270270271,33.20270270270271,31.20270270270271,29.20270270270271,28.20270270270271,28.20270270270271,27.20270270270271,26.20270270270271,26.20270270270271,25.20270270270271,24.20270270270271,21.20270270270271,20.20270270270271,19.20270270270271,19.20270270270271,19.20270270270271,20.20270270270271,22.20270270270271,23.20270270270271,24.20270270270271,24.20270270270271,25.20270270270271,25.20270270270271,26.20270270270271,26.20270270270271,27.20270270270271
7.3483294778227375,7.384439956160238,7.436081454520973,7.4751952125497105,-11.029507738588546,-11.109535676106248,12.258656087185653,12.297483698352265,1,1,0.6580252738548727,0.6606830903595828,-0.0029657307287883432,-0.003010894140901853,6.205586263743259,6.227083626149579,35.53336478816313,35.676886879417474,50,50,1,-7.163636363636385,-5.163636363636385,-4.163636363636385,-2.1636363636363853,-1.1636363636363853,-1.1636363636363853,-2.1636363636363853,-2.1636363636363853,-3.1636363636363853,-4.163636363636385,-6.163636363636385,-7.163636363636385,-8.163636363636385,-9.163636363636385,-9.163636363636385,-10.163636363636385,-11.163636363636385,-10.163636363636385,-8.163636363636385,-10.163636363636385,-12.163636363636385,-12.163636363636385,-12.163636363636385,-11.163636363636385,-9.163636363636385,-8.163636363636385,-5.163636363636385,-4.163636363636385,-2.1636363636363853,-1.1636363636363853,-0.16363636363638534,0.8363636363636147,2.8363636363636147,2.8363636363636147,3.8363636363636147,6.836363636363615,9.836363636363615,11.836363636363615,11.836363636363615,11.836363636363615,12.836363636363615,12.836363636363615,11.836363636363615,10.836363636363615,9.836363636363615,9.836363636363615,9.836363636363615,9.836363636363615,9.836363636363615,8.836363636363615,8.836363636363615,8.836363636363615,6.836363636363615,3.8363636363636147,2.8363636363636147,-7.272727272727252,-4.272727272727252,-3.272727272727252,-2.272727272727252,-2.272727272727252,-1.272727272727252,-1.272727272727252,-2.272727272727252,-3.272727272727252,-5.272727272727252,-6.272727272727252,-7.272727272727252,-8.272727272727252,-8.272727272727252,-9.272727272727252,-10.272727272727252,-11.272727272727252,-10.272727272727252,-9.272727272727252,-10.272727272727252,-11.272727272727252,-12.272727272727252,-12.272727272727252,-11.272727272727252,-9.272727272727252,-8.272727272727252,-5.272727272727252,-4.272727272727252,-2.272727272727252,-1.272727272727252,-0.27272727272725206,0.7272727272727479,2.727272727272748,2.727272727272748,4.727272727272748,6.727272727272748,9.727272727272748,10.727272727272748,11.727272727272748,12.727272727272748,12.727272727272748,12.727272727272748,11.727272727272748,10.727272727272748,10.727272727272748,9.727272727272748,9.727272727272748,9.727272727272748,9.727272727272748,9.727272727272748,8.727272727272748,8.727272727272748,6.727272727272748,3.727272727272748,3.727272727272748
3.4408665795731377,3.3938476923811023,3.46161880648676,3.4127181814019507,-6.934910987547976,-6.784113989058221,4.915410567670187,4.913464819884708,4,4,0.5096964574698518,0.5029615248674439,-0.0011445825520928344,-0.0011324061419641985,2.7924930421467797,2.75864244822975,34.149662650480074,33.698422166118746,59,59,2,-2.764705882352928,-2.764705882352928,-1.7647058823529278,-0.7647058823529278,1.2352941176470722,3.235294117647072,3.235294117647072,4.235294117647072,5.235294117647072,5.235294117647072,3.235294117647072,1.2352941176470722,0.2352941176470722,5.235294117647072,6.235294117647072,6.235294117647072,5.235294117647072,4.235294117647072,3.235294117647072,1.2352941176470722,0.2352941176470722,0.2352941176470722,-0.7647058823529278,-1.7647058823529278,-1.7647058823529278,-3.764705882352928,-2.764705882352928,-3.764705882352928,-6.764705882352928,-7.764705882352928,-7.764705882352928,-8.764705882352928,-7.764705882352928,-6.764705882352928,-5.764705882352928,-3.764705882352928,-2.764705882352928,-1.7647058823529278,-0.7647058823529278,-0.7647058823529278,0.2352941176470722,0.2352941176470722,0.2352941176470722,0.2352941176470722,1.2352941176470722,3.235294117647072,4.235294117647072,5.235294117647072,6.235294117647072,6.235294117647072,5.235294117647072,5.235294117647072,3.235294117647072,2.235294117647072,2.235294117647072,1.2352941176470722,1.2352941176470722,1.2352941176470722,0.2352941176470722,0.2352941176470722,0.2352941176470722,-2.764705882352928,-3.764705882352928,-3.764705882352928,-4.764705882352928,-4.764705882352928,-3.764705882352928,-1.7647058823529278,-2.735294117647072,-2.735294117647072,-2.735294117647072,-0.7352941176470722,1.2647058823529278,2.264705882352928,3.264705882352928,4.264705882352928,4.264705882352928,4.264705882352928,3.264705882352928,1.2647058823529278,0.2647058823529278,5.264705882352928,6.264705882352928,6.264705882352928,5.264705882352928,4.264705882352928,3.264705882352928,1.2647058823529278,1.2647058823529278,0.2647058823529278,-0.7352941176470722,-1.7352941176470722,-2.735294117647072,-2.735294117647072,-2.735294117647072,-3.735294117647072,-5.735294117647072,-7.735294117647072,-7.735294117647072,-8.735294117647072,-7.735294117647072,-6.735294117647072,-4.735294117647072,-3.735294117647072,-2.735294117647072,-2.735294117647072,-1.7352941176470722,-0.7352941176470722,-0.7352941176470722,0.2647058823529278,0.2647058823529278,0.2647058823529278,1.2647058823529278,3.264705882352928,5.264705882352928,5.264705882352928,5.264705882352928,5.264705882352928,6.264705882352928,4.264705882352928,3.264705882352928,3.264705882352928,2.264705882352928,2.264705882352928,1.2647058823529278,1.2647058823529278,0.2647058823529278,0.2647058823529278,0.2647058823529278,-2.735294117647072,-3.735294117647072,-3.735294117647072,-4.735294117647072,-4.735294117647072,-2.735294117647072,-1.7352941176470722
13.954566811140229,13.927311546640977,14.057223584786719,14.034120729994957,-22.120156425605792,-22.239893121229965,22.003084028324405,21.931175528869666,3,3,1.1723664859602594,1.1742665271200303,-0.0036904959612768518,-0.0036076963724020555,11.54064683107848,11.516536503019221,80.8932875312579,81.0243903712821,62,62,3,-8.914285714285711,10.085714285714289,10.085714285714289,11.085714285714289,9.085714285714289,9.085714285714289,7.085714285714289,5.085714285714289,3.085714285714289,2.085714285714289,1.085714285714289,-0.914285714285711,-5.914285714285711,-6.914285714285711,-8.914285714285711,-21.91428571428571,-20.91428571428571,-19.91428571428571,-18.91428571428571,-17.91428571428571,-16.91428571428571,-16.91428571428571,-16.91428571428571,-17.91428571428571,-19.91428571428571,-21.91428571428571,-22.91428571428571,-24.91428571428571,-24.91428571428571,-21.91428571428571,-17.91428571428571,-16.91428571428571,-14.914285714285711,-13.914285714285711,-14.914285714285711,-13.914285714285711,-13.914285714285711,-12.914285714285711,-10.914285714285711,-7.914285714285711,-4.914285714285711,-1.914285714285711,0.08571428571428896,2.085714285714289,5.085714285714289,7.085714285714289,9.085714285714289,11.085714285714289,12.085714285714289,13.085714285714289,14.085714285714289,18.08571428571429,20.08571428571429,22.08571428571429,23.08571428571429,23.08571428571429,23.08571428571429,22.08571428571429,21.08571428571429,19.08571428571429,19.08571428571429,18.08571428571429,17.08571428571429,16.08571428571429,16.08571428571429,15.085714285714289,15.085714285714289,13.085714285714289,10.085714285714289,8.085714285714289,-8.714285714285722,9.285714285714278,10.285714285714278,11.285714285714278,10.285714285714278,8.285714285714278,7.285714285714278,5.285714285714278,3.2857142857142776,2.2857142857142776,0.2857142857142776,-0.7142857142857224,-5.714285714285722,-6.714285714285722,-8.714285714285722,-21.714285714285722,-21.714285714285722,-20.714285714285722,-18.714285714285722,-17.714285714285722,-16.714285714285722,-16.714285714285722,-16.714285714285722,-18.714285714285722,-20.714285714285722,-21.714285714285722,-23.714285714285722,-24.714285714285722,-24.714285714285722,-20.714285714285722,-17.714285714285722,-16.714285714285722,-14.714285714285722,-13.714285714285722,-14.714285714285722,-14.714285714285722,-13.714285714285722,-12.714285714285722,-11.714285714285722,-7.714285714285722,-4.714285714285722,-1.7142857142857224,0.2857142857142776,2.2857142857142776,4.285714285714278,6.285714285714278,9.285714285714278,10.285714285714278,12.285714285714278,13.285714285714278,14.285714285714278,17.285714285714278,20.285714285714278,21.285714285714278,22.285714285714278,23.285714285714278,23.285714285714278,22.285714285714278,21.285714285714278,19.285714285714278,18.285714285714278,18.285714285714278,17.285714285714278,17.285714285714278,16.285714285714278,15.285714285714278,15.285714285714278,12.285714285714278,10.285714285714278,9.285714285714278
9.128419724301477,9.196194722411542,9.291114370764127,9.359626782830265,-22.17030836722824,-22.299934064790683,10.845545800630878,10.953835383166927,6,6,1.2802751281473843,1.2921344696415247,0.0013594797362551903,0.0014098308375979714,6.59039797404956,6.641535866633594,93.46008435475906,94.3258162838313,67,67,4,3.2837837837838038,-6.716216216216196,-16.716216216216196,-11.716216216216196,-11.716216216216196,12.283783783783804,11.283783783783804,11.283783783783804,10.283783783783804,9.283783783783804,8.283783783783804,6.283783783783804,4.283783783783804,4.283783783783804,3.2837837837838038,-6.716216216216196,-16.716216216216196,-11.716216216216196,-11.716216216216196,-20.716216216216196,-20.716216216216196,-21.716216216216196,-22.716216216216196,-20.716216216216196,-19.716216216216196,-17.716216216216196,-17.716216216216196,-16.716216216216196,-16.716216216216196,-16.716216216216196,-15.716216216216196,-15.716216216216196,-12.716216216216196,-7.716216216216196,-0.7162162162161962,4.283783783783804,4.283783783783804,10.283783783783804,13.283783783783804,12.283783783783804,10.283783783783804,8.283783783783804,7.283783783783804,7.283783783783804,7.283783783783804,6.283783783783804,6.283783783783804,6.283783783783804,5.283783783783804,5.283783783783804,2.2837837837838038,-0.7162162162161962,-1.7162162162161962,-2.7162162162161962,-2.7162162162161962,-0.7162162162161962,0.28378378378380376,0.28378378378380376,2.2837837837838038,3.2837837837838038,4.283783783783804,4.283783783783804,5.283783783783804,6.283783783783804,7.283783783783804,8.283783783783804,10.283783783783804,13.283783783783804,15.283783783783804,16.283783783783804,18.283783783783804,17.283783783783804,17.283783783783804,16.283783783783804,3.4054054054054177,-6.594594594594582,-16.594594594594582,-11.594594594594582,-11.594594594594582,11.405405405405418,11.405405405405418,11.405405405405418,10.405405405405418,9.405405405405418,7.405405405405418,6.405405405405418,5.405405405405418,4.405405405405418,3.4054054054054177,-6.594594594594582,-16.594594594594582,-11.594594594594582,-11.594594594594582,-20.594594594594582,-21.594594594594582,-21.594594594594582,-21.594594594594582,-20.594594594594582,-19.594594594594582,-18.594594594594582,-17.594594594594582,-17.594594594594582,-17.594594594594582,-16.594594594594582,-16.594594594594582,-15.594594594594582,-13.594594594594582,-7.594594594594582,-0.5945945945945823,5.405405405405418,4.405405405405418,10.405405405405418,12.405405405405418,11.405405405405418,10.405405405405418,8.405405405405418,7.405405405405418,7.405405405405418,7.405405405405418,7.405405405405418,6.405405405405418,6.405405405405418,6.405405405405418,4.405405405405418,1.4054054054054177,-1.5945945945945823,-2.5945945945945823,-2.5945945945945823,-1.5945945945945823,-0.5945945945945823,-0.5945945945945823,1.4054054054054177,2.4054054054054177,3.4054054054054177,3.4054054054054177,4.405405405405418,5.405405405405418,6.405405405405418,7.405405405405418,8.405405405405418,11.405405405405418,13.405405405405418,15.405405405405418,16.405405405405418,17.405405405405418,17.405405405405418,17.405405405405418,16.405405405405418
5.252052290885979,5.310779565054257,5.291544346616317,5.349126523413104,-12.277332066693521,-12.356503455604711,5.046047700259051,5.361428024784047,2,2,0.5980885124867563,0.6032268821308661,0.0023265518282426464,0.002419847139650888,4.086649975676979,4.138509245326592,41.86619587407294,42.22588174916062,63,59,5,5.619718309859138,6.619718309859138,0.6197183098591381,-0.3802816901408619,0.6197183098591381,1.6197183098591381,2.619718309859138,2.619718309859138,2.619718309859138,2.619718309859138,3.619718309859138,3.619718309859138,3.619718309859138,3.619718309859138,5.619718309859138,6.619718309859138,-2.380281690140862,-0.3802816901408619,0.6197183098591381,1.6197183098591381,1.6197183098591381,2.619718309859138,2.619718309859138,3.619718309859138,4.619718309859138,4.619718309859138,4.619718309859138,6.619718309859138,8.619718309859138,7.619718309859138,3.619718309859138,3.619718309859138,3.619718309859138,2.619718309859138,0.6197183098591381,-1.3802816901408619,-2.380281690140862,-4.380281690140862,-5.380281690140862,-6.380281690140862,-6.380281690140862,-7.380281690140862,-7.380281690140862,-10.380281690140862,-11.380281690140862,-12.380281690140862,-13.380281690140862,-14.380281690140862,-12.380281690140862,-11.380281690140862,-9.380281690140862,-8.380281690140862,-7.380281690140862,-6.380281690140862,-5.380281690140862,-3.380281690140862,-2.380281690140862,-1.3802816901408619,-0.3802816901408619,1.6197183098591381,3.619718309859138,6.619718309859138,6.619718309859138,7.619718309859138,7.619718309859138,6.619718309859138,5.619718309859138,4.619718309859138,3.619718309859138,2.619718309859138,1.6197183098591381,5.84507042253523,6.84507042253523,0.8450704225352297,0.8450704225352297,0.8450704225352297,1.8450704225352297,1.8450704225352297,2.8450704225352297,2.8450704225352297,2.8450704225352297,2.8450704225352297,2.8450704225352297,2.8450704225352297,2.8450704225352297,5.84507042253523,6.84507042253523,-2.1549295774647703,-0.15492957746477032,0.8450704225352297,0.8450704225352297,1.8450704225352297,2.8450704225352297,2.8450704225352297,3.8450704225352297,3.8450704225352297,3.8450704225352297,5.84507042253523,7.84507042253523,8.84507042253523,7.84507042253523,3.8450704225352297,3.8450704225352297,3.8450704225352297,2.8450704225352297,-0.15492957746477032,-1.1549295774647703,-2.1549295774647703,-4.15492957746477,-5.15492957746477,-5.15492957746477,-6.15492957746477,-7.15492957746477,-8.15492957746477,-11.15492957746477,-12.15492957746477,-12.15492957746477,-13.15492957746477,-14.15492957746477,-12.15492957746477,-11.15492957746477,-10.15492957746477,-8.15492957746477,-7.15492957746477,-7.15492957746477,-5.15492957746477,-4.15492957746477,-3.1549295774647703,-1.1549295774647703,-1.1549295774647703,1.8450704225352297,3.8450704225352297,5.84507042253523,6.84507042253523,7.84507042253523,7.84507042253523,6.84507042253523,5.84507042253523,3.8450704225352297,2.8450704225352297,2.8450704225352297,1.8450704225352297
11.030102688808725,4.807003350411312,11.036009535531903,4.874388708841923,-29.28476689830037,-8.307006555178662,19.26511803845358,8.79144649877566,3,3,1.6323276442133186,0.622049787870936,-0.11823454450839213,0.0044177938537805165,7.852261023124361,4.066561978042299,122.4245733159989,46.6537340903202,70,71,6,-285.5921052631579,12.407894736842081,10.407894736842081,7.407894736842081,6.407894736842081,5.407894736842081,4.407894736842081,12.407894736842081,12.407894736842081,12.407894736842081,14.407894736842081,15.407894736842081,14.407894736842081,14.407894736842081,14.407894736842081,12.407894736842081,10.407894736842081,7.407894736842081,6.407894736842081,5.407894736842081,4.407894736842081,1.4078947368420813,3.4078947368420813,5.407894736842081,5.407894736842081,6.407894736842081,5.407894736842081,5.407894736842081,3.4078947368420813,2.4078947368420813,1.4078947368420813,-0.5921052631579187,-1.5921052631579187,-2.5921052631579187,-3.5921052631579187,-4.592105263157919,-4.592105263157919,-3.5921052631579187,-4.592105263157919,-6.592105263157919,-5.592105263157919,-4.592105263157919,-2.5921052631579187,-1.5921052631579187,0.40789473684208133,1.4078947368420813,1.4078947368420813,2.4078947368420813,2.4078947368420813,2.4078947368420813,3.4078947368420813,3.4078947368420813,4.407894736842081,6.407894736842081,8.407894736842081,9.407894736842081,9.407894736842081,10.407894736842081,10.407894736842081,9.407894736842081,7.407894736842081,6.407894736842081,4.407894736842081,4.407894736842081,3.4078947368420813,2.4078947368420813,2.4078947368420813,1.4078947368420813,1.4078947368420813,-2.5921052631579187,-3.5921052631579187,-4.592105263157919,-5.592105263157919,-6.592105263157919,-4.592105263157919,-2.5921052631579187,10.67105263157896,8.67105263157896,5.671052631578959,3.6710526315789593,2.6710526315789593,1.6710526315789593,0.6710526315789593,7.671052631578959,7.671052631578959,8.67105263157896,9.67105263157896,10.67105263157896,10.67105263157896,10.67105263157896,10.67105263157896,8.67105263157896,5.671052631578959,3.6710526315789593,2.6710526315789593,1.6710526315789593,0.6710526315789593,-2.3289473684210407,-0.32894736842104066,0.6710526315789593,1.6710526315789593,1.6710526315789593,1.6710526315789593,0.6710526315789593,-0.32894736842104066,-2.3289473684210407,-2.3289473684210407,-3.3289473684210407,-5.328947368421041,-6.328947368421041,-7.328947368421041,-8.32894736842104,-9.32894736842104,-8.32894736842104,-8.32894736842104,-10.32894736842104,-9.32894736842104,-8.32894736842104,-6.328947368421041,-5.328947368421041,-3.3289473684210407,-3.3289473684210407,-2.3289473684210407,-2.3289473684210407,-2.3289473684210407,-1.3289473684210407,-0.32894736842104066,-0.32894736842104066,0.6710526315789593,2.6710526315789593,4.671052631578959,5.671052631578959,5.671052631578959,6.671052631578959,5.671052631578959,4.671052631578959,3.6710526315789593,2.6710526315789593,1.6710526315789593,0.6710526315789593,-0.32894736842104066,-0.32894736842104066,-1.3289473684210407,-1.3289473684210407,-3.3289473684210407,-6.328947368421041,-8.32894736842104,-8.32894736842104,-10.32894736842104,-9.32894736842104,-8.32894736842104,-7.328947368421041
332.8391984588722,4.038277568180566,333.6782635881077,4.056458867682128,-329.59294996434573,-6.68963178073394,851.6036857999504,7.150088202680128,1,2,46.42270417652654,0.5574823686828657,3.2529098119475535,0.0007677780059299825,251.06451515569032,3.206747422211395,2506.826025532433,30.104047908874747,54,47,7,7857.309090909091,-142.69090909090914,-142.69090909090914,-142.69090909090914,-142.69090909090914,-145.69090909090914,-146.69090909090914,-147.69090909090914,-148.69090909090914,-148.69090909090914,-149.69090909090914,-150.69090909090914,-150.69090909090914,-150.69090909090914,-152.69090909090914,-152.69090909090914,-152.69090909090914,-152.69090909090914,-152.69090909090914,-151.69090909090914,-150.69090909090914,-148.69090909090914,-146.69090909090914,-145.69090909090914,-145.69090909090914,-144.69090909090914,-143.69090909090914,-143.69090909090914,-142.69090909090914,-142.69090909090914,-141.69090909090914,-139.69090909090914,-137.69090909090914,-137.69090909090914,-136.69090909090914,-137.69090909090914,-137.69090909090914,-138.69090909090914,-140.69090909090914,-141.69090909090914,-141.69090909090914,-142.69090909090914,-142.69090909090914,-142.69090909090914,-142.69090909090914,-143.69090909090914,-144.69090909090914,-147.69090909090914,-149.69090909090914,-149.69090909090914,-149.69090909090914,-149.69090909090914,-147.69090909090914,-146.69090909090914,-145.69090909090914,1.8545454545454731,2.854545454545473,2.854545454545473,2.854545454545473,1.8545454545454731,0.8545454545454731,-0.14545454545452685,-2.145454545454527,-3.145454545454527,-3.145454545454527,-4.145454545454527,-5.145454545454527,-5.145454545454527,-5.145454545454527,-7.145454545454527,-7.145454545454527,-6.145454545454527,-7.145454545454527,-7.145454545454527,-6.145454545454527,-5.145454545454527,-3.145454545454527,-2.145454545454527,-1.1454545454545269,-0.14545454545452685,0.8545454545454731,0.8545454545454731,1.8545454545454731,2.854545454545473,2.854545454545473,3.854545454545473,5.854545454545473,6.854545454545473,7.854545454545473,8.854545454545473,7.854545454545473,7.854545454545473,5.854545454545473,4.854545454545473,3.854545454545473,3.854545454545473,2.854545454545473,2.854545454545473,2.854545454545473,2.854545454545473,1.8545454545454731,-0.14545454545452685,-2.145454545454527,-3.145454545454527,-4.145454545454527,-4.145454545454527,-4.145454545454527,-3.145454545454527,-1.1454545454545269,-0.14545454545452685
8.604069034860917,8.55567684204994,8.662082689028106,8.629546908290738,-14.688847552607529,-13.74791436881428,12.94866268083983,13.14256707182683,1,1,0.6856957267208404,0.6534076615956314,0.004871196592244799,0.005215298779776443,7.470375925652915,7.451786351817487,52.11287523078387,49.65898228126798,68,66,1,11.766233766233768,12.766233766233768,12.766233766233768,12.766233766233768,13.766233766233768,13.766233766233768,13.766233766233768,13.766233766233768,10.766233766233768,9.766233766233768,7.766233766233768,8.766233766233768,8.766233766233768,10.766233766233768,11.766233766233768,12.766233766233768,12.766233766233768,12.766233766233768,13.766233766233768,13.766233766233768,13.766233766233768,13.766233766233768,0.7662337662337677,1.7662337662337677,1.7662337662337677,1.7662337662337677,1.7662337662337677,1.7662337662337677,3.7662337662337677,4.766233766233768,6.766233766233768,6.766233766233768,7.766233766233768,7.766233766233768,6.766233766233768,4.766233766233768,2.7662337662337677,0.7662337662337677,-0.2337662337662323,-0.2337662337662323,-1.2337662337662323,-2.2337662337662323,-3.2337662337662323,-4.233766233766232,-4.233766233766232,-7.233766233766232,-11.233766233766232,-13.233766233766232,-14.233766233766232,-15.233766233766232,-15.233766233766232,-15.233766233766232,-13.233766233766232,-13.233766233766232,-12.233766233766232,-11.233766233766232,-10.233766233766232,-10.233766233766232,-10.233766233766232,-10.233766233766232,-10.233766233766232,-9.233766233766232,-7.233766233766232,-5.233766233766232,-4.233766233766232,-3.2337662337662323,-3.2337662337662323,-3.2337662337662323,-4.233766233766232,-5.233766233766232,-7.233766233766232,-8.233766233766232,-10.233766233766232,-11.233766233766232,-11.233766233766232,-13.233766233766232,-14.233766233766232,12.597402597402606,13.597402597402606,13.597402597402606,13.597402597402606,13.597402597402606,13.597402597402606,13.597402597402606,13.597402597402606,9.597402597402606,9.597402597402606,8.597402597402606,9.597402597402606,10.597402597402606,11.597402597402606,12.597402597402606,13.597402597402606,13.597402597402606,13.597402597402606,13.597402597402606,13.597402597402606,13.597402597402606,13.597402597402606,1.5974025974026063,2.5974025974026063,2.5974025974026063,2.5974025974026063,1.5974025974026063,2.5974025974026063,3.5974025974026063,5.597402597402606,6.597402597402606,6.597402597402606,6.597402597402606,6.597402597402606,5.597402597402606,3.5974025974026063,0.5974025974026063,-0.40259740259739374,-1.4025974025973937,-1.4025974025973937,-1.4025974025973937,-2.4025974025973937,-3.4025974025973937,-4.402597402597394,-5.402597402597394,-8.402597402597394,-11.402597402597394,-12.402597402597394,-14.402597402597394,-14.402597402597394,-14.402597402597394,-13.402597402597394,-12.402597402597394,-11.402597402597394,-10.402597402597394,-11.402597402597394,-10.402597402597394,-10.402597402597394,-9.402597402597394,-9.402597402597394,-9.402597402597394,-9.402597402597394,-6.402597402597394,-5.402597402597394,-3.4025974025973937,-3.4025974025973937,-3.4025974025973937,-3.4025974025973937,-4.402597402597394,-6.402597402597394,-8.402597402597394,-9.402597402597394,-11.402597402597394,-12.402597402597394,-14.402597402597394,-14.402597402597394,-14.402597402597394
7.071372078266602,6.605777562609174,7.076911761235501,6.61298270287878,-11.702848503458481,-10.91986180327735,9.143680077840754,8.658493280714705,3,3,0.9820270620408703,0.937839643465816,0.00497845629310514,0.004664027474593232,6.254255748394485,5.83394064203047,76.59811083918788,73.15149219033366,73,74,2,12.025316455696213,11.025316455696213,9.025316455696213,8.025316455696213,7.025316455696213,5.025316455696213,4.025316455696213,3.0253164556962133,2.0253164556962133,1.0253164556962133,10.025316455696213,11.025316455696213,12.025316455696213,13.025316455696213,12.025316455696213,11.025316455696213,9.025316455696213,8.025316455696213,7.025316455696213,5.025316455696213,4.025316455696213,3.0253164556962133,2.0253164556962133,1.0253164556962133,-10.974683544303787,-11.974683544303787,-12.974683544303787,-12.974683544303787,-12.974683544303787,-10.974683544303787,-9.974683544303787,-8.974683544303787,-7.974683544303787,-7.974683544303787,-6.974683544303787,-5.974683544303787,-4.974683544303787,-2.9746835443037867,-1.9746835443037867,2.0253164556962133,4.025316455696213,6.025316455696213,8.025316455696213,9.025316455696213,9.025316455696213,9.025316455696213,7.025316455696213,6.025316455696213,5.025316455696213,3.0253164556962133,2.0253164556962133,1.0253164556962133,0.025316455696213325,-0.9746835443037867,-1.9746835443037867,-3.9746835443037867,-5.974683544303787,-8.974683544303787,-9.974683544303787,-11.974683544303787,-11.974683544303787,-12.974683544303787,-11.974683544303787,-9.974683544303787,-9.974683544303787,-7.974683544303787,-5.974683544303787,-4.974683544303787,-4.974683544303787,-2.9746835443037867,-2.9746835443037867,-2.9746835443037867,-1.9746835443037867,-0.9746835443037867,1.0253164556962133,3.0253164556962133,6.025316455696213,7.025316455696213,8.025316455696213,11.265822784810126,10.265822784810126,8.265822784810126,7.265822784810126,6.265822784810126,4.265822784810126,3.2658227848101262,2.2658227848101262,1.2658227848101262,0.2658227848101262,10.265822784810126,11.265822784810126,12.265822784810126,12.265822784810126,11.265822784810126,10.265822784810126,8.265822784810126,7.265822784810126,6.265822784810126,4.265822784810126,3.2658227848101262,2.2658227848101262,1.2658227848101262,0.2658227848101262,-10.734177215189874,-11.734177215189874,-12.734177215189874,-11.734177215189874,-11.734177215189874,-10.734177215189874,-8.734177215189874,-7.734177215189874,-7.734177215189874,-6.734177215189874,-5.734177215189874,-4.734177215189874,-3.7341772151898738,-3.7341772151898738,-1.7341772151898738,3.2658227848101262,4.265822784810126,7.265822784810126,8.265822784810126,8.265822784810126,8.265822784810126,8.265822784810126,7.265822784810126,5.265822784810126,3.2658227848101262,2.2658227848101262,1.2658227848101262,0.2658227848101262,-0.7341772151898738,-1.7341772151898738,-2.7341772151898738,-3.7341772151898738,-5.734177215189874,-8.734177215189874,-9.734177215189874,-11.734177215189874,-11.734177215189874,-12.734177215189874,-11.734177215189874,-9.734177215189874,-8.734177215189874,-6.734177215189874,-4.734177215189874,-4.734177215189874,-3.7341772151898738,-2.7341772151898738,-1.7341772151898738,-1.7341772151898738,-0.7341772151898738,-0.7341772151898738,1.2658227848101262,4.265822784810126,5.265822784810126,6.265822784810126,7.265822784810126
5.133899762016642,757.786498329801,5.180691403458326,758.4670234449691,-9.549311255542124,-778.6429717865561,7.476042914500257,2315.8480370508028,3,2,0.7057550553299411,96.95569002688752,0.0019065694806697658,-0.12164458020810433,4.491098118124827,504.7758135721838,52.93162914974558,7271.676752016564,65,75,3,4.60526315789474,4.60526315789474,5.60526315789474,5.60526315789474,6.60526315789474,7.60526315789474,8.60526315789474,11.60526315789474,12.60526315789474,-0.39473684210526017,0.6052631578947398,1.6052631578947398,3.60526315789474,3.60526315789474,4.60526315789474,4.60526315789474,5.60526315789474,5.60526315789474,6.60526315789474,7.60526315789474,8.60526315789474,11.60526315789474,1.6052631578947398,0.6052631578947398,-2.39473684210526,-5.39473684210526,-7.39473684210526,-9.39473684210526,-9.39473684210526,-9.39473684210526,-7.39473684210526,-6.39473684210526,-5.39473684210526,-4.39473684210526,-3.39473684210526,-2.39473684210526,-0.39473684210526017,0.6052631578947398,0.6052631578947398,1.6052631578947398,1.6052631578947398,1.6052631578947398,3.60526315789474,5.60526315789474,7.60526315789474,7.60526315789474,8.60526315789474,7.60526315789474,6.60526315789474,6.60526315789474,4.60526315789474,2.60526315789474,1.6052631578947398,0.6052631578947398,-0.39473684210526017,-0.39473684210526017,-1.3947368421052602,-1.3947368421052602,-2.39473684210526,-3.39473684210526,-6.39473684210526,-8.39473684210526,-10.39473684210526,-11.39473684210526,-11.39473684210526,-10.39473684210526,-10.39473684210526,-8.39473684210526,-7.39473684210526,-6.39473684210526,-5.39473684210526,-5.39473684210526,-5.39473684210526,-4.39473684210526,-4.39473684210526,-4.39473684210526,-293.82894736842104,-292.82894736842104,-292.82894736842104,-292.82894736842104,-291.82894736842104,-290.82894736842104,-288.82894736842104,-286.82894736842104,22400.17105263158,-298.82894736842104,-297.82894736842104,-295.82894736842104,-294.82894736842104,-293.82894736842104,-293.82894736842104,-292.82894736842104,-292.82894736842104,-292.82894736842104,-291.82894736842104,-290.82894736842104,-288.82894736842104,-286.82894736842104,-297.82894736842104,-298.82894736842104,-302.82894736842104,-303.82894736842104,-305.82894736842104,-306.82894736842104,-306.82894736842104,-306.82894736842104,-305.82894736842104,-304.82894736842104,-302.82894736842104,-301.82894736842104,-301.82894736842104,-300.82894736842104,-298.82894736842104,-297.82894736842104,-297.82894736842104,-296.82894736842104,-296.82894736842104,-295.82894736842104,-293.82894736842104,-292.82894736842104,-291.82894736842104,-291.82894736842104,-290.82894736842104,-290.82894736842104,-291.82894736842104,-293.82894736842104,-295.82894736842104,-296.82894736842104,-297.82894736842104,-298.82894736842104,-298.82894736842104,-299.82894736842104,-300.82894736842104,-301.82894736842104,-301.82894736842104,-303.82894736842104,-305.82894736842104,-307.82894736842104,-308.82894736842104,-309.82894736842104,-309.82894736842104,-308.82894736842104,-307.82894736842104,-306.82894736842104,-304.82894736842104,-304.82894736842104,-303.82894736842104,-303.82894736842104,-302.82894736842104,-302.82894736842104,-301.82894736842104,-301.82894736842104
67.19165680329004,6.6509991901968695,67.23632810021905,6.696209682144415,-63.21857413284975,-11.62134521491229,199.82656810445135,11.66846752747092,4,3,9.820415006828364,0.7850830039826705,-0.09929536612316828,-0.005877604618718283,45.727115187136256,5.458675304562158,687.4290504779855,54.955810278786934,70,67,4,-239.8450704225352,-38.8450704225352,-25.8450704225352,-27.8450704225352,-28.8450704225352,-28.8450704225352,-28.8450704225352,-29.8450704225352,-30.8450704225352,-33.8450704225352,-36.8450704225352,-38.8450704225352,-39.8450704225352,-40.8450704225352,-39.8450704225352,-38.8450704225352,1965.1549295774648,-35.8450704225352,-34.8450704225352,-32.8450704225352,-30.8450704225352,-30.8450704225352,-29.8450704225352,-28.8450704225352,-27.8450704225352,-26.8450704225352,-25.8450704225352,-24.8450704225352,-23.8450704225352,-22.8450704225352,-18.8450704225352,-14.845070422535201,-13.845070422535201,-12.845070422535201,-12.845070422535201,-10.845070422535201,-11.845070422535201,-12.845070422535201,-14.845070422535201,-15.845070422535201,-16.8450704225352,-16.8450704225352,-17.8450704225352,-18.8450704225352,-18.8450704225352,-19.8450704225352,-20.8450704225352,-20.8450704225352,-23.8450704225352,-26.8450704225352,-28.8450704225352,-28.8450704225352,-28.8450704225352,-30.8450704225352,-28.8450704225352,-27.8450704225352,-26.8450704225352,-25.8450704225352,-24.8450704225352,-23.8450704225352,-23.8450704225352,-22.8450704225352,-23.8450704225352,-22.8450704225352,-21.8450704225352,-21.8450704225352,-20.8450704225352,-18.8450704225352,-16.8450704225352,-15.845070422535201,-14.845070422535201,-14.197183098591552,-12.197183098591552,-2.1971830985915517,-3.1971830985915517,-4.197183098591552,-4.197183098591552,-4.197183098591552,-5.197183098591552,-5.197183098591552,-10.197183098591552,-11.197183098591552,-13.197183098591552,-14.197183098591552,-15.197183098591552,-14.197183098591552,-12.197183098591552,-9.197183098591552,-9.197183098591552,-8.197183098591552,-6.197183098591552,-5.197183098591552,-5.197183098591552,-4.197183098591552,-3.1971830985915517,-2.1971830985915517,-1.1971830985915517,-0.1971830985915517,0.8028169014084483,0.8028169014084483,2.8028169014084483,6.802816901408448,10.802816901408448,11.802816901408448,11.802816901408448,12.802816901408448,12.802816901408448,12.802816901408448,10.802816901408448,9.802816901408448,8.802816901408448,7.802816901408448,7.802816901408448,6.802816901408448,5.802816901408448,5.802816901408448,4.802816901408448,3.8028169014084483,3.8028169014084483,0.8028169014084483,-1.1971830985915517,-2.1971830985915517,-3.1971830985915517,-5.197183098591552,-4.197183098591552,-3.1971830985915517,-2.1971830985915517,-1.1971830985915517,-0.1971830985915517,1.8028169014084483,0.8028169014084483,1.8028169014084483,2.8028169014084483,2.8028169014084483,3.8028169014084483,3.8028169014084483,3.8028169014084483,3.8028169014084483,6.802816901408448,8.802816901408448,9.802816901408448,10.802816901408448
5.49430563614677,5.264599564362072,5.51551290181563,5.285464113406771,-7.3949281052012585,-7.044313193007366,12.201140012638886,11.933428256991375,4,4,0.7032055058574823,0.6739893891080362,-0.0009641794230815617,-0.0008497852542413815,4.212945943473704,3.98446533208984,52.74041293931118,50.54920418310272,67,67,5,-2.3289473684210407,-2.3289473684210407,-2.3289473684210407,-2.3289473684210407,-1.3289473684210407,-1.3289473684210407,-1.3289473684210407,-7.328947368421041,-8.32894736842104,-7.328947368421041,-7.328947368421041,-5.328947368421041,-4.328947368421041,-3.3289473684210407,-2.3289473684210407,-2.3289473684210407,-2.3289473684210407,-2.3289473684210407,-1.3289473684210407,-1.3289473684210407,-1.3289473684210407,2.6710526315789593,2.6710526315789593,1.6710526315789593,1.6710526315789593,0.6710526315789593,-0.32894736842104066,-0.32894736842104066,-3.3289473684210407,-5.328947368421041,-8.32894736842104,-8.32894736842104,-9.32894736842104,-10.32894736842104,-8.32894736842104,-6.328947368421041,-5.328947368421041,-5.328947368421041,-3.3289473684210407,-1.3289473684210407,-0.32894736842104066,0.6710526315789593,1.6710526315789593,2.6710526315789593,3.6710526315789593,4.671052631578959,5.671052631578959,7.671052631578959,9.67105263157896,11.67105263157896,12.67105263157896,12.67105263157896,13.67105263157896,12.67105263157896,11.67105263157896,10.67105263157896,8.67105263157896,7.671052631578959,6.671052631578959,5.671052631578959,5.671052631578959,5.671052631578959,4.671052631578959,3.6710526315789593,3.6710526315789593,2.6710526315789593,-0.32894736842104066,-2.3289473684210407,-4.328947368421041,-5.328947368421041,-6.328947368421041,-7.328947368421041,-6.328947368421041,-4.328947368421041,-2.3289473684210407,-1.3289473684210407,-2.05263157894737,-2.05263157894737,-2.05263157894737,-1.05263157894737,-1.05263157894737,-1.05263157894737,-0.05263157894736992,-7.05263157894737,-8.05263157894737,-8.05263157894737,-6.05263157894737,-5.05263157894737,-4.05263157894737,-2.05263157894737,-2.05263157894737,-2.05263157894737,-2.05263157894737,-1.05263157894737,-1.05263157894737,-1.05263157894737,-0.05263157894736992,1.94736842105263,1.94736842105263,0.9473684210526301,0.9473684210526301,-0.05263157894736992,-1.05263157894737,-3.05263157894737,-4.05263157894737,-6.05263157894737,-7.05263157894737,-8.05263157894737,-9.05263157894737,-9.05263157894737,-7.05263157894737,-6.05263157894737,-5.05263157894737,-4.05263157894737,-3.05263157894737,-2.05263157894737,-1.05263157894737,0.9473684210526301,1.94736842105263,2.94736842105263,3.94736842105263,4.94736842105263,5.94736842105263,8.94736842105263,9.94736842105263,11.94736842105263,11.94736842105263,12.94736842105263,12.94736842105263,11.94736842105263,10.94736842105263,9.94736842105263,8.94736842105263,6.94736842105263,5.94736842105263,4.94736842105263,4.94736842105263,3.94736842105263,3.94736842105263,2.94736842105263,2.94736842105263,1.94736842105263,-2.05263157894737,-3.05263157894737,-5.05263157894737,-5.05263157894737,-7.05263157894737,-7.05263157894737,-4.05263157894737,-3.05263157894737,-2.05263157894737,-2.05263157894737
7.115568831862522,3.905937596354711,7.124207508962484,3.9071615916790883,-18.25959247255005,-7.2934351059882925,8.41299899336089,5.453362073807376,4,4,1.2275845936332945,0.5917080266149878,-0.08195385021700859,-0.0004553977388114042,5.705519633011734,3.3156440975239656,84.70333696069733,40.82785383643416,65,63,6,-197.95714285714286,12.042857142857144,12.042857142857144,12.042857142857144,11.042857142857144,10.042857142857144,9.042857142857144,7.0428571428571445,6.0428571428571445,5.0428571428571445,5.0428571428571445,4.0428571428571445,3.0428571428571445,3.0428571428571445,2.0428571428571445,3.0428571428571445,4.0428571428571445,3.0428571428571445,2.0428571428571445,-0.9571428571428555,-3.9571428571428555,-5.9571428571428555,-6.9571428571428555,-6.9571428571428555,-4.9571428571428555,-4.9571428571428555,-3.9571428571428555,-2.9571428571428555,-1.9571428571428555,-0.9571428571428555,0.04285714285714448,-0.9571428571428555,-0.9571428571428555,0.04285714285714448,2.0428571428571445,2.0428571428571445,2.0428571428571445,4.0428571428571445,7.0428571428571445,8.042857142857144,9.042857142857144,10.042857142857144,10.042857142857144,9.042857142857144,9.042857142857144,7.0428571428571445,6.0428571428571445,5.0428571428571445,4.0428571428571445,3.0428571428571445,4.0428571428571445,3.0428571428571445,3.0428571428571445,3.0428571428571445,3.0428571428571445,2.0428571428571445,-1.9571428571428555,-1.9571428571428555,-2.9571428571428555,-2.9571428571428555,-3.9571428571428555,-1.9571428571428555,0.04285714285714448,1.0428571428571445,2.0428571428571445,4.0428571428571445,4.0428571428571445,6.0428571428571445,6.0428571428571445,7.0428571428571445,-1.0999999999999943,8.900000000000006,8.900000000000006,8.900000000000006,7.900000000000006,5.900000000000006,3.9000000000000057,3.9000000000000057,2.9000000000000057,1.9000000000000057,1.9000000000000057,0.9000000000000057,0.9000000000000057,-1.0999999999999943,-1.0999999999999943,0.9000000000000057,-0.09999999999999432,-0.09999999999999432,-2.0999999999999943,-5.099999999999994,-7.099999999999994,-8.099999999999994,-9.099999999999994,-9.099999999999994,-8.099999999999994,-7.099999999999994,-6.099999999999994,-5.099999999999994,-4.099999999999994,-4.099999999999994,-2.0999999999999943,-3.0999999999999943,-2.0999999999999943,-2.0999999999999943,-1.0999999999999943,-0.09999999999999432,-1.0999999999999943,1.9000000000000057,3.9000000000000057,5.900000000000006,5.900000000000006,6.900000000000006,6.900000000000006,5.900000000000006,5.900000000000006,3.9000000000000057,1.9000000000000057,0.9000000000000057,0.9000000000000057,0.9000000000000057,-0.09999999999999432,-0.09999999999999432,-0.09999999999999432,-1.0999999999999943,-0.09999999999999432,-1.0999999999999943,-4.099999999999994,-5.099999999999994,-5.099999999999994,-6.099999999999994,-5.099999999999994,-4.099999999999994,-2.0999999999999943,-2.0999999999999943,-0.09999999999999432,1.9000000000000057,2.9000000000000057,3.9000000000000057,3.9000000000000057,4.900000000000006
